ALX,ALY,ALZ,ARX,ARY,ARZ,EMG0L,EMG1L,EMG2L,EMG3L,EMG4L,EMG5L,EMG6L,EMG7L,EMG0R,EMG1R,EMG2R,EMG3R,EMG4R,EMG5R,EMG6R,EMG7R,GLX,GLY,GLZ,GRX,GRY,GRZ,ORL,OPL,OYL,ORR,OPR,OYR,LHNX,LHNY,LHNZ,RHNX,RHNY,RHNZ,HX,HY,HZ,LTX,LTY,LTZ,RTX,RTY,RTZ,SpineMidX,SpineMidY,SpineMidZ,SpineBaseX,SpineBaseY,SpineBaseZ,ShoulderLeftX,ShoulderLeftY,ShoulderLeftZ,ShoulderRightX,ShoulderRightY,ShoulderRightZ,ElbowLeftX,ElbowLeftY,ElbowLeftZ,ElbowRightX,ElbowRightY,ElbowRightZ,Myo_Pose_left,Myo_Pose_Right,Kinect_pose_left,Kinect_pose_right
0.890625,-0.4174805,-0.1845703,-0.3974609,0.9067383,0.125,-2,-2,0,-2,0,0,2,-1,-3,-3,-5,-9,10,4,2,56,24.375,24.375,24.375,-0.625,-0.625,-0.625,1.59466,3.23219,0.9478871,7.321568,5.656144,1.262556,-0.2146453,-0.5262276,1.150501,0.3284459,-0.02497919,1.156016,0.1339183,0.2431884,1.270218,-0.168171,-0.5179514,1.147254,0.385877,-0.001324027,1.131226,0.1004099,-0.2061817,1.29599,0.08577884,-0.5179927,1.280636,-0.0877426,0.003315891,1.265963,0.001754872,-0.4969044,1.240887,-0.187837,-0.2512164,1.265541,0.453371,-0.1369485,1.258855,NA,NA,Unknown,Unknown
0.8681641,-0.3950195,-0.1450195,-0.4418945,0.7924805,0.2177734,0,-1,-1,-2,-3,-2,-2,-2,-3,-2,-3,-11,-8,-5,-4,-4,10.8125,10.8125,10.8125,-13.375,-13.375,-13.375,1.68001,3.240283,0.889783,7.285254,5.637384,1.227709,-0.2100427,-0.5220223,1.141727,0.3276756,-0.02748803,1.155843,0.1340865,0.2432762,1.270284,-0.1682368,-0.5119926,1.137457,0.3879051,-0.004546721,1.130407,0.1003997,-0.2061491,1.296036,0.08585128,-0.5177817,1.281086,-0.08790337,0.00362686,1.266185,0.001842045,-0.4968185,1.240933,-0.1881163,-0.2508482,1.265951,0.4511887,-0.1379359,1.25704,NA,NA,Unknown,Unknown
0.8759766,-0.4375,-0.1494141,-0.4433594,0.7885742,0.21875,-1,-2,-1,-1,-1,-1,0,-1,3,1,0,5,3,1,4,3,-13.25,-13.25,-13.25,-31,-31,-31,1.782095,3.258637,0.76034,7.232426,5.606603,1.218619,-0.203662,-0.5203931,1.132817,0.3254611,-0.03427852,1.150104,0.1341107,0.243302,1.270292,-0.1602731,-0.5114424,1.125593,0.3819546,-0.01192591,1.126472,0.1003417,-0.2061478,1.296051,0.08576827,-0.5177194,1.281195,-0.08791068,0.003473788,1.266061,0.00187055,-0.4967893,1.240802,-0.1884077,-0.2508764,1.265956,0.4495461,-0.1401341,1.255255,NA,NA,Unknown,Unknown
0.8896484,-0.4057617,-0.1835938,-0.4238281,0.8115234,0.2631836,-1,-1,0,0,-1,-2,-1,-1,3,0,6,6,2,-1,1,1,7.25,7.25,7.25,-41.625,-41.625,-41.625,1.852671,3.269944,0.6814817,7.141179,5.534357,1.244789,-0.1952523,-0.520444,1.126554,0.3206904,-0.0477581,1.138539,0.1339756,0.2433914,1.270457,-0.1512405,-0.507406,1.128448,0.2627212,-0.01928689,1.194857,0.1002184,-0.2061157,1.296194,0.08555005,-0.5174446,1.281661,-0.08814485,0.003262206,1.266191,0.001606679,-0.4966936,1.241016,-0.1877654,-0.2514905,1.265352,0.4447345,-0.1452662,1.251595,NA,NA,Unknown,Unknown
0.8969727,-0.3818359,-0.2177734,-0.4160156,0.824707,0.3740234,1,-2,-1,1,0,-1,-1,-2,-25,-3,-1,-3,2,4,-1,-9,5.5,5.5,5.5,-62.9375,-62.9375,-62.9375,1.938395,3.283067,0.6053207,7.056965,5.459561,1.287336,-0.187164,-0.5178269,1.119288,0.2869297,-0.0691692,1.125466,0.1334931,0.2434715,1.270976,-0.1415653,-0.5078579,1.118909,0.3360766,-0.04384272,1.09228,0.1000322,-0.2061352,1.296456,0.08558036,-0.5173175,1.281979,-0.08863138,0.002539513,1.266231,0.001661578,-0.4967838,1.241344,-0.1863696,-0.253045,1.263947,0.4334866,-0.1554759,1.241103,NA,NA,Unknown,Unknown
0.8793945,-0.4106445,-0.2016602,-0.3242188,0.9960938,0.7294922,0,-1,-2,-1,-1,-1,-1,-1,4,0,-2,7,-1,0,2,3,-2.625,-2.625,-2.625,-72.4375,-72.4375,-72.4375,1.967021,3.287436,0.5688822,6.895404,5.341013,1.472713,-0.1817905,-0.5175655,1.117415,0.2768302,-0.08475148,1.09764,0.1325922,0.2437068,1.272459,-0.1384653,-0.5050027,1.111643,0.2813518,-0.0607218,1.063162,0.100151,-0.2060474,1.297128,0.08647738,-0.5167899,1.282779,-0.08896399,0.002390165,1.266685,0.0025312,-0.4968953,1.24222,-0.185742,-0.2536323,1.263325,0.419587,-0.1631304,1.227139,NA,NA,Open,Unknown
0.8886719,-0.4282227,-0.1918945,-0.4165039,1.093262,0.6489258,1,-1,0,-1,-2,-2,-1,0,-21,-4,-6,-3,-5,-3,-1,-5,-17.875,-17.875,-17.875,-9.6875,-9.6875,-9.6875,1.967239,3.280313,0.5351267,6.872964,5.336835,1.689521,-0.1788142,-0.5194591,1.118298,0.2412965,-0.09507617,1.075629,0.131912,0.2436098,1.274795,-0.138702,-0.5077745,1.111474,0.2413437,-0.07035544,1.044718,0.1001729,-0.2060965,1.298169,0.08694886,-0.5166637,1.283161,-0.08940875,0.001454894,1.267354,0.003235842,-0.4973102,1.242928,-0.1849265,-0.2551506,1.262071,0.4101393,-0.1679277,1.217927,NA,NA,Unknown,Unknown
0.9072266,-0.434082,-0.1972656,-0.07080078,1.268066,0.6699219,-1,-2,-1,-1,0,0,0,-1,40,9,2,0,1,-1,1,8,-32.3125,-32.3125,-32.3125,-0.625,-0.625,-0.625,1.881833,3.254031,0.5656782,6.987229,5.512065,2.03854,-0.1790391,-0.5232754,1.121875,0.1869469,-0.08438249,1.06261,0.132337,0.2432426,1.278009,-0.1356342,-0.5144127,1.119708,0.1440136,-0.1255521,1.100889,0.1003307,-0.2064828,1.299643,0.08715235,-0.5167419,1.283614,-0.0894664,0.001175422,1.267594,0.003388449,-0.4976785,1.243519,-0.1842528,-0.2557991,1.26054,0.4020797,-0.1726136,1.184641,NA,NA,Unknown,Unknown
0.9213867,-0.4389648,-0.203125,0.03710938,0.9887695,0.6005859,-2,-2,-1,-2,-1,0,-3,-1,-6,2,8,25,8,1,0,-4,-33.3125,-33.3125,-33.3125,-23.3125,-23.3125,-23.3125,1.785967,3.239714,0.607197,7.034579,5.638932,2.237736,-0.182522,-0.5255178,1.12425,0.1213336,-0.04249634,1.074332,0.1341612,0.242448,1.281488,-0.1393365,-0.5131048,1.122629,0.1091398,-0.08507581,1.127846,0.1004031,-0.2070022,1.301329,0.08690229,-0.5172844,1.284495,-0.08943781,0.001418928,1.267913,0.002646501,-0.4988365,1.245834,-0.1833628,-0.2559762,1.258865,0.3733294,-0.1688086,1.158386,NA,NA,Unknown,Unknown
0.9013672,-0.4233398,-0.1962891,0.105957,0.7490234,0.2314453,1,0,-1,0,-2,-1,-1,-1,-2,-8,-5,2,2,6,15,4,-10.0625,-10.0625,-10.0625,-43.4375,-43.4375,-43.4375,1.724488,3.239631,0.6402243,7.123367,5.789669,2.681648,-0.1853591,-0.5273041,1.126356,0.08824705,-0.01114216,1.107196,0.1374714,0.2418341,1.284638,-0.1404736,-0.5162125,1.124767,0.04977084,-0.03722586,1.137333,0.1008603,-0.2074055,1.303024,0.0870619,-0.5188438,1.286164,-0.08904036,0.001817602,1.268304,0.002198535,-0.5010669,1.248298,-0.182934,-0.2556495,1.257982,0.3583856,-0.1744992,1.129372,NA,NA,Unknown,Unknown
0.887207,-0.3969727,-0.1879883,-0.1054688,1.010254,-0.1821289,-1,-2,-1,1,-1,0,0,0,3,-7,-6,4,-4,-6,-3,-1,14.875,14.875,14.875,-16.625,-16.625,-16.625,1.727509,3.253124,0.654556,7.227186,5.775876,2.932766,-0.1859876,-0.525655,1.122364,0.08032349,-0.02532386,1.144476,0.1395996,0.2413895,1.285897,-0.141698,-0.5124461,1.120582,0.05261436,-0.03453927,1.113429,0.1012814,-0.20787,1.303676,0.08677533,-0.5197599,1.286561,-0.08654085,0.002570519,1.267326,0.001606991,-0.5020009,1.249037,-0.1818582,-0.2543897,1.257241,0.3154181,-0.1611378,1.122962,NA,NA,Unknown,Unknown
0.8847656,-0.3725586,-0.2148438,-0.5473633,1.046387,0.1552734,-2,-1,0,-1,0,0,-1,-1,-21,-8,1,-6,-2,-1,-5,-17,25.3125,25.3125,25.3125,-38.125,-38.125,-38.125,1.776997,3.26515,0.6419243,7.208306,5.773514,2.961564,-0.1845605,-0.5249536,1.121096,0.08059537,-0.02512006,1.151086,0.1405092,0.2411677,1.286599,-0.1398001,-0.513126,1.121061,0.0349699,-0.03126502,1.124529,0.1011643,-0.2082137,1.304135,0.08611122,-0.5201443,1.286815,-0.08591887,0.00283412,1.267517,0.000601325,-0.502436,1.250235,-0.1817029,-0.2539604,1.257298,0.3107775,-0.1636429,1.119043,NA,NA,Unknown,Unknown
0.9003906,-0.3408203,-0.1938477,-0.7636719,1.259766,0.03466797,-4,-2,0,-2,1,-2,-1,0,-9,-6,-10,-19,2,-2,-1,-7,18.5,18.5,18.5,-54.25,-54.25,-54.25,1.834346,3.277534,0.6113136,7.201634,5.767534,2.83843,-0.1847388,-0.5239233,1.121004,0.06478388,-0.01217674,1.139458,0.1409777,0.2408863,1.287032,-0.1404936,-0.5102835,1.121112,0.05227866,-0.06021684,1.164115,0.1011618,-0.2086039,1.304655,0.08542736,-0.521037,1.287602,-0.08456367,0.003167628,1.267468,-0.000141678,-0.5030196,1.251328,-0.1814037,-0.2531819,1.25853,0.3088677,-0.1641649,1.118204,NA,NA,Unknown,Unknown
0.8984375,-0.453125,-0.1748047,-0.3662109,0.2446289,0.5219727,1,-1,-1,-1,-1,-1,1,-2,13,5,31,80,33,15,8,5,2.4375,2.4375,2.4375,35.1875,35.1875,35.1875,1.836675,3.276788,0.6227388,7.088738,5.783533,2.839557,-0.1846986,-0.5244585,1.125231,0.06204125,-0.009321358,1.1371,0.1414509,0.2407471,1.287459,-0.1405473,-0.5102527,1.124258,0.04608817,-0.05933599,1.16453,0.1010639,-0.2087303,1.30496,0.08479851,-0.5219513,1.288364,-0.08367668,0.00328342,1.267434,-0.000905534,-0.5035698,1.252181,-0.1807878,-0.2528794,1.260287,0.3071999,-0.1640656,1.117887,NA,NA,Unknown,Unknown
0.8837891,-0.3041992,-0.2358398,-0.4204102,1.197754,0.1933594,0,-1,-2,-2,-2,0,-1,-1,-6,-4,-6,-17,-7,-14,-4,-1,8.75,8.75,8.75,55.0625,55.0625,55.0625,1.822348,3.250022,0.6781624,7.19816,5.754853,2.935776,-0.186482,-0.5249134,1.133643,0.0747113,-0.03389122,1.155941,0.141802,0.2405986,1.287819,-0.1442348,-0.5096947,1.132276,0.02066621,-0.03989775,1.132,0.1008544,-0.2089724,1.30547,0.084047,-0.522094,1.288632,-0.08336271,0.00349311,1.267796,-0.001734987,-0.5035264,1.253074,-0.1804549,-0.2525292,1.263217,0.3054773,-0.1642166,1.116872,NA,NA,Unknown,Unknown
0.8427734,-0.46875,-0.2373047,-0.08300781,0.6035156,0.5966797,-2,-3,-1,-3,-2,-2,1,0,6,13,9,0,-1,-2,9,11,-38.8125,-38.8125,-38.8125,109.5,109.5,109.5,1.733924,3.239316,0.719088,7.162042,5.801506,2.894141,-0.1899087,-0.5266849,1.142225,0.0731199,-0.03087582,1.15053,0.1422592,0.2403994,1.288464,-0.145231,-0.5206055,1.13912,0.02938428,-0.03393719,1.1242,0.1007112,-0.2092157,1.306098,0.08339033,-0.5222025,1.288888,-0.08320313,0.003698445,1.268463,-0.002341197,-0.5034862,1.25396,-0.1807193,-0.2520544,1.265447,0.3040908,-0.1643846,1.115961,NA,NA,Unknown,Unknown
0.9301758,-0.4291992,-0.1665039,-0.734375,0.8979492,0.05126953,-1,-1,1,1,0,1,0,0,2,3,11,57,9,-2,6,3,13.4375,13.4375,13.4375,-116.5,-116.5,-116.5,1.702846,3.245733,0.7550356,7.152107,5.787098,2.870677,-0.1946282,-0.5262642,1.145165,0.0584427,-0.01541182,1.141383,0.1428382,0.2403584,1.289221,-0.151177,-0.5119076,1.143161,0.04205103,-0.0622467,1.164275,0.1005983,-0.2093675,1.306351,0.08279382,-0.5225164,1.289086,-0.08270968,0.003922266,1.268565,-0.002748927,-0.5036143,1.254114,-0.1808827,-0.2513258,1.268864,0.3034536,-0.1640124,1.115421,NA,NA,Unknown,Unknown
0.8447266,-0.4672852,-0.2207031,-0.3676758,0.465332,0.6010742,-1,-2,0,0,-1,0,-1,-1,1,-4,-13,-31,-12,3,1,-3,37.8125,37.8125,37.8125,85.75,85.75,85.75,1.713439,3.246918,0.7988136,7.090252,5.795558,2.840007,-0.1977573,-0.5270843,1.147794,0.0593554,-0.01416246,1.141527,0.1433961,0.2403477,1.28962,-0.1519486,-0.5178784,1.144582,0.04204057,-0.06221818,1.164167,0.1003895,-0.2094214,1.306454,0.08205602,-0.5231276,1.289397,-0.07850372,0.003284049,1.268337,-0.003506456,-0.5039295,1.254274,-0.1806432,-0.2502202,1.27067,0.3030187,-0.1637615,1.115064,NA,NA,Unknown,Unknown
0.8735352,-0.3354492,-0.2446289,-0.4785156,0.8334961,-0.534668,-3,-2,0,-2,-1,-1,0,-2,6,1,1,-1,-5,-2,-2,0,-25.9375,-25.9375,-25.9375,-82.5625,-82.5625,-82.5625,1.683631,3.23269,0.8314664,7.172656,5.759299,2.945458,-0.2013697,-0.5264341,1.151261,0.07188296,-0.03367484,1.156251,0.1436396,0.240417,1.289887,-0.1577247,-0.514172,1.146964,0.01457018,-0.04234185,1.136,0.1004121,-0.2094697,1.306512,0.08195598,-0.5231221,1.289348,-0.07922734,0.003627407,1.269073,-0.003522181,-0.5039138,1.254304,-0.1816342,-0.2496604,1.272483,0.3031622,-0.1637668,1.114595,NA,NA,Unknown,Unknown
0.859375,-0.5180664,-0.1777344,-0.1289063,0.940918,0.5097656,-1,-2,0,-2,-2,-2,1,-2,-3,-2,-1,-4,-3,-2,-1,-2,-19.5625,-19.5625,-19.5625,73.6875,73.6875,73.6875,1.649407,3.240413,0.8124786,7.088103,5.770364,2.819421,-0.201324,-0.5265693,1.14916,0.06697512,-0.02894917,1.147035,0.1437616,0.2404409,1.289955,-0.1596862,-0.5099736,1.150314,0.03949354,-0.06757763,1.157281,0.1004559,-0.2095567,1.306625,0.08155915,-0.5230898,1.289295,-0.0796155,0.003840206,1.269412,-0.003824702,-0.503835,1.254602,-0.1820417,-0.2494398,1.272794,0.3033351,-0.1639344,1.114302,NA,NA,Unknown,Unknown
0.9145508,-0.4321289,-0.1674805,-0.5058594,0.9467773,0.3383789,-2,-2,-2,-2,0,-1,-2,-1,-1,0,-5,-4,-3,-1,-2,0,12.625,12.625,12.625,-71.5625,-71.5625,-71.5625,1.685517,3.255669,0.7969413,7.044153,5.71837,2.755192,-0.2023056,-0.5253411,1.14435,0.06232953,-0.02241703,1.137256,0.1438618,0.240502,1.290115,-0.1567521,-0.5131222,1.144192,0.04028603,-0.06641175,1.156179,0.1005361,-0.2096114,1.306598,0.08134372,-0.5231196,1.289039,-0.07978103,0.003970028,1.269439,-0.003866971,-0.503821,1.25439,-0.1822455,-0.2492943,1.272815,0.3051778,-0.1646992,1.115294,NA,NA,Unknown,Unknown
0.894043,-0.3466797,-0.2226563,-0.4365234,0.9975586,0.2885742,0,-1,0,0,-1,0,-2,0,-2,-2,-4,4,-2,0,0,1,30.875,30.875,30.875,14.1875,14.1875,14.1875,1.753127,3.263686,0.7757474,6.979775,5.696969,2.66517,-0.2002879,-0.5236719,1.141054,0.06265897,-0.02463791,1.130563,0.1438728,0.2405226,1.290167,-0.1592362,-0.5066124,1.134515,0.04049816,-0.0678369,1.155928,0.100548,-0.2096394,1.30664,0.08140108,-0.5231666,1.288957,-0.07989962,0.004060755,1.269404,-0.003777381,-0.5038515,1.254272,-0.1826362,-0.2490869,1.272826,0.3072852,-0.1650183,1.115981,NA,NA,Unknown,Unknown
0.8740234,-0.3828125,-0.2060547,-0.4907227,0.9145508,0.3344727,-1,0,-1,-2,-2,0,-2,-2,-5,-4,-2,-2,-2,0,0,-3,-28.5,-28.5,-28.5,-18.125,-18.125,-18.125,1.767481,3.259064,0.7402596,6.961733,5.686309,2.645087,-0.1964614,-0.5220524,1.138329,0.06633845,-0.02638798,1.127379,0.1438623,0.2405365,1.290155,-0.1501358,-0.5167815,1.135261,0.04176358,-0.06907356,1.154574,0.100481,-0.2096306,1.306625,0.08123189,-0.5230799,1.288784,-0.08013306,0.004145691,1.269338,-0.003914308,-0.503698,1.254074,-0.1827705,-0.24905,1.27267,0.3111418,-0.1659409,1.117657,NA,NA,Unknown,Unknown
0.8769531,-0.4233398,-0.2089844,-0.4555664,0.925293,0.3300781,-2,0,0,0,1,-1,1,-2,0,0,-1,-7,-4,-2,0,1,3,3,3,11.875,11.875,11.875,1.783289,3.259245,0.6890514,6.956944,5.68074,2.63226,-0.1939533,-0.5227735,1.137462,0.06653246,-0.03276375,1.129919,0.1437766,0.240603,1.290057,-0.1497331,-0.5104727,1.132976,0.04282804,-0.07894737,1.15127,0.1004352,-0.2096363,1.306542,0.08114874,-0.5229504,1.288364,-0.08044139,0.004192512,1.269244,-0.003942071,-0.5035307,1.253531,-0.1826308,-0.2492538,1.271842,0.3152086,-0.1669381,1.119431,NA,NA,Unknown,Unknown
0.8989258,-0.3969727,-0.2163086,-0.4072266,0.8486328,0.347168,-2,1,-1,0,1,-2,-3,-1,6,0,-1,1,-1,-1,-2,2,-3.5,-3.5,-3.5,1.25,1.25,1.25,1.787552,3.252475,0.68481,6.952078,5.687066,2.628392,-0.1924132,-0.5214487,1.135839,0.06665114,-0.03352074,1.130755,0.1437558,0.2406425,1.289988,-0.1485552,-0.5140424,1.133377,0.03281517,-0.08059257,1.150172,0.1004098,-0.2096439,1.30644,0.08118941,-0.5229167,1.288108,-0.08061877,0.004234844,1.269072,-0.003839068,-0.5034562,1.253193,-0.1825172,-0.2493836,1.271075,0.3168795,-0.1673536,1.12023,NA,NA,Unknown,Unknown
0.8959961,-0.4101563,-0.2202148,-0.4121094,0.8730469,0.3081055,0,-2,-2,-3,-3,-2,-2,1,-2,-1,0,0,-2,-1,0,-1,-5.75,-5.75,-5.75,4.75,4.75,4.75,1.78472,3.251899,0.6748577,6.95763,5.689262,2.622653,-0.1911725,-0.521306,1.133896,0.06754696,-0.03402102,1.131237,0.1436999,0.2407337,1.289856,-0.1461291,-0.5160357,1.129434,0.03628138,-0.07935031,1.150173,0.1003711,-0.2096159,1.306291,0.08121622,-0.522761,1.287801,-0.0808259,0.004277247,1.268886,-0.00382212,-0.5033085,1.25282,-0.182469,-0.2495143,1.270095,0.3182095,-0.1676432,1.120794,NA,NA,Unknown,Unknown
0.8798828,-0.4111328,-0.2011719,-0.3745117,0.8271484,0.3452148,-1,1,-2,-1,-1,-1,-1,-1,-7,-2,-1,-2,0,0,-1,-3,-6.625,-6.625,-6.625,-0.375,-0.375,-0.375,1.781975,3.251901,0.6618074,6.949993,5.682773,2.613403,-0.1903885,-0.5217592,1.131519,0.06765874,-0.03417186,1.130307,0.1436736,0.2407677,1.289788,-0.1477958,-0.5117056,1.133473,0.03583562,-0.08097794,1.149457,0.1002437,-0.2095225,1.306006,0.08103987,-0.5226129,1.287248,-0.08105195,0.004340564,1.26865,-0.003875419,-0.5031123,1.252108,-0.1824611,-0.2496284,1.268883,0.3186965,-0.167767,1.121057,NA,NA,Unknown,Unknown
0.8935547,-0.3969727,-0.1928711,-0.4375,0.8852539,0.3178711,-1,-1,-1,-1,-1,2,0,-2,-7,-3,0,-4,-2,-1,-2,-2,1.9375,1.9375,1.9375,-3.0625,-3.0625,-3.0625,1.777189,3.250465,0.6669558,6.942157,5.679433,2.606598,-0.1915301,-0.5241825,1.131577,0.06622828,-0.03878757,1.132785,0.1436477,0.240866,1.289656,-0.1483872,-0.5121898,1.130467,0.02859377,-0.09012078,1.146182,0.1002884,-0.2095532,1.305716,0.0812433,-0.5226097,1.286813,-0.08127349,0.004381021,1.268484,-0.003590693,-0.5031816,1.251741,-0.182655,-0.2497029,1.267407,0.3202609,-0.1680484,1.121814,NA,NA,Unknown,Unknown
0.8999023,-0.387207,-0.2026367,-0.4199219,0.8876953,0.3076172,0,-1,-2,-2,0,-1,0,-2,2,-2,-1,-2,0,0,0,1,-5.25,-5.25,-5.25,0.25,0.25,0.25,1.766516,3.245421,0.6741884,6.939631,5.68234,2.599492,-0.1903748,-0.5243196,1.131428,0.06659532,-0.03569422,1.131317,0.1436446,0.2409688,1.289466,-0.1403718,-0.4970466,1.13075,0.02911508,-0.08739299,1.145885,0.1002645,-0.209501,1.30544,0.08121727,-0.5224189,1.286407,-0.08142695,0.004412429,1.268297,-0.003601788,-0.5029925,1.251192,-0.1827423,-0.2497624,1.26636,0.3202842,-0.1680968,1.121904,NA,NA,Unknown,Unknown
0.8935547,-0.4111328,-0.1938477,-0.4262695,0.8613281,0.3208008,-1,-1,-2,-3,2,-2,0,-2,3,-2,-2,-2,-3,0,1,2,-2.5,-2.5,-2.5,1.1875,1.1875,1.1875,1.75849,3.241107,0.6710471,6.939133,5.686066,2.596049,-0.1913453,-0.5238714,1.131431,0.06542602,-0.03862881,1.132572,0.1436962,0.2411267,1.289123,-0.1464708,-0.5086936,1.129515,0.0272595,-0.09142727,1.144587,0.1003125,-0.2094528,1.304998,0.08122879,-0.5222071,1.285842,-0.08160179,0.004492609,1.268089,-0.00352031,-0.5026923,1.250275,-0.182903,-0.2497379,1.265459,0.3204157,-0.1681052,1.121962,NA,NA,Unknown,Unknown
0.8842773,-0.3945313,-0.2045898,-0.4238281,0.8681641,0.3134766,1,-2,-2,0,-1,-1,-2,-1,-9,-1,1,-2,-1,-2,-2,-5,0.5625,0.5625,0.5625,1.0625,1.0625,1.0625,1.759735,3.239749,0.6700436,6.942533,5.687184,2.59498,-0.1913528,-0.5246201,1.132441,0.06640373,-0.0367369,1.132569,0.1437464,0.2411873,1.288827,-0.146592,-0.5097129,1.130994,0.02817053,-0.08890024,1.145346,0.1001979,-0.2093753,1.304791,0.08115243,-0.5220432,1.2857,-0.08172097,0.00449374,1.267862,-0.003643077,-0.5025032,1.250052,-0.1830818,-0.2497548,1.264614,0.3204764,-0.1680961,1.121979,NA,NA,Unknown,Unknown
