ALX,ALY,ALZ,ARX,ARY,ARZ,EMG0L,EMG1L,EMG2L,EMG3L,EMG4L,EMG5L,EMG6L,EMG7L,EMG0R,EMG1R,EMG2R,EMG3R,EMG4R,EMG5R,EMG6R,EMG7R,GLX,GLY,GLZ,GRX,GRY,GRZ,ORL,OPL,OYL,ORR,OPR,OYR,LHNX,LHNY,LHNZ,RHNX,RHNY,RHNZ,HX,HY,HZ,LTX,LTY,LTZ,RTX,RTY,RTZ,SpineMidX,SpineMidY,SpineMidZ,SpineBaseX,SpineBaseY,SpineBaseZ,ShoulderLeftX,ShoulderLeftY,ShoulderLeftZ,ShoulderRightX,ShoulderRightY,ShoulderRightZ,ElbowLeftX,ElbowLeftY,ElbowLeftZ,ElbowRightX,ElbowRightY,ElbowRightZ,Myo_Pose_left,Myo_Pose_Right,Kinect_pose_left,Kinect_pose_right
-0.6362305,0.1943359,0.1083984,-0.1992188,-0.984375,0.5449219,22,1,6,22,43,16,15,11,-24,-19,-16,-29,-3,0,11,-1,81.3125,81.3125,81.3125,-45,-45,-45,7.257285,6.203609,3.709864,3.119623,4.946827,5.045955,-0.005015283,-0.2107785,1.244889,0.0472002,0.0547678,1.325333,0.02102215,0.2290439,1.606281,0.0373438,-0.1808474,1.255389,0.04462144,0.08098982,1.325353,0.02630329,-0.2243439,1.56115,0.03018885,-0.5341565,1.505432,-0.1482494,-0.04218742,1.57646,-0.05970643,-0.5261158,1.482104,-0.1960357,-0.2098248,1.472488,0.2408499,-0.1309306,1.387685,NA,NA,Unknown,Unknown,
-0.6025391,0.1328125,0.08886719,-0.1933594,-0.9282227,0.3647461,-8,-9,1,23,-20,-59,-61,-87,0,-24,-13,2,13,-1,10,-6,67,67,67,10.8125,10.8125,10.8125,7.356019,6.012068,3.684941,3.109934,5.075486,4.99757,-0.0055762,-0.1989842,1.255929,0.03860302,0.03086287,1.302976,0.02116287,0.2283061,1.606889,0.03104861,-0.1703174,1.264556,0.008324474,0.05145852,1.302214,0.02626065,-0.2243736,1.561059,0.03007542,-0.5345221,1.505357,-0.1481052,-0.04229442,1.576269,-0.05986781,-0.5265926,1.482107,-0.1990737,-0.2083505,1.47116,0.269205,-0.1201363,1.392664,NA,NA,Unknown,Unknown,
-0.3759766,0.2866211,-0.01464844,-0.1606445,-0.9526367,0.3071289,7,5,1,2,-8,-9,-11,12,9,10,0,15,9,12,17,4,67.0625,67.0625,67.0625,10.6875,10.6875,10.6875,7.387624,5.741776,3.622049,3.12001,5.266631,4.989349,-0.003124041,-0.183511,1.26364,0.03723153,0.005178139,1.288561,0.02135483,0.2269084,1.607753,0.009725221,-0.1522068,1.26797,0.04175025,0.03681396,1.303625,0.02612929,-0.2243874,1.561467,0.0300769,-0.5348756,1.505326,-0.148062,-0.04228787,1.576182,-0.05993207,-0.5272081,1.482228,-0.2004978,-0.2075606,1.470502,0.2738334,-0.1171424,1.393849,NA,NA,Unknown,NotTracked,
-0.1728516,0.7011719,0.02685547,0.05810547,-0.828125,0.4057617,10,7,8,14,60,95,-23,10,-5,-39,-6,-10,-10,-4,12,2,68,68,68,14.75,14.75,14.75,7.431841,5.438128,3.520506,3.137265,5.351771,4.996212,-0.03399587,-0.152206,1.265597,0.01380644,-0.07501209,1.240492,0.02196622,0.2249342,1.609018,-0.02386056,-0.1277157,1.217333,0.01837259,-0.03476628,1.242926,0.02669057,-0.2230597,1.564316,0.03108435,-0.5301671,1.507503,-0.1475942,-0.04129519,1.576446,-0.05777007,-0.5228483,1.484873,-0.2012177,-0.2053241,1.468502,0.2094033,-0.1068282,1.370003,NA,NA,NotTracked,NotTracked,
0.0703125,1.116699,-0.1337891,-0.07617188,-0.8168945,0.2680664,13,4,2,-2,-9,-31,-8,11,22,-2,-12,-11,-2,-2,-10,1,43.5625,43.5625,43.5625,12.375,12.375,12.375,7.471128,5.155192,3.385348,3.135449,5.40755,4.96887,0.0008479177,-0.1305257,1.225233,0.01978092,-0.1062498,1.227463,0.02248951,0.2239477,1.610321,-0.0004552485,-0.0838495,1.219083,0.0220988,-0.06655342,1.22222,0.02711298,-0.2221658,1.565616,0.03215933,-0.5276377,1.508743,-0.147219,-0.04121016,1.576387,-0.05627629,-0.5205413,1.484903,-0.1991606,-0.2061747,1.46377,0.1654888,-0.1044633,1.336929,NA,NA,NotTracked,NotTracked,
0.8564453,1.070801,0.1474609,-0.2207031,-0.746582,0.2519531,-2,-3,-1,-2,-3,-14,3,-3,11,10,-2,-1,0,-2,5,0,-32.8125,-32.8125,-32.8125,5.625,5.625,5.625,7.451873,4.919517,3.259144,3.135867,5.435251,4.94675,0.008620652,-0.1432972,1.21697,0.03107135,-0.1400254,1.213214,0.02256267,0.2232059,1.611581,0.02902778,-0.09584961,1.217875,0.01633639,-0.1076309,1.21285,0.02747835,-0.2208571,1.567421,0.03310158,-0.5244281,1.510891,-0.1470683,-0.03959232,1.578007,-0.05459977,-0.5175899,1.485211,-0.1976136,-0.2085889,1.460401,0.2216582,-0.1071213,1.364345,NA,NA,NotTracked,NotTracked,
0.6044922,1.333984,0.04882813,-0.2382813,-0.8164063,0.3007813,-4,-67,-21,-5,-4,-8,-5,0,16,9,-1,-7,-3,-1,-11,-6,-52.875,-52.875,-52.875,19.5,19.5,19.5,7.378007,4.782835,3.201557,3.149458,5.424711,4.97517,0.01351007,-0.147182,1.21722,0.03148399,-0.1459593,1.212983,0.02244379,0.2228922,1.611868,0.03553286,-0.1024214,1.220278,0.01543997,-0.1162277,1.215596,0.02761402,-0.2205227,1.567863,0.03346545,-0.5237613,1.511392,-0.1468825,-0.03957968,1.57796,-0.05408178,-0.5170278,1.48534,-0.1960026,-0.2095607,1.458095,0.2510935,-0.1181268,1.394146,NA,NA,NotTracked,NotTracked,
0.3500977,1.041504,0.2524414,-0.2861328,-0.8271484,0.3583984,1,-48,-11,2,0,-5,-4,2,-11,-4,-1,0,2,5,1,-3,-105.3125,-105.3125,-105.3125,10.9375,10.9375,10.9375,7.238734,4.813599,3.234362,3.177089,5.390389,5.017899,0.01177365,-0.1404199,1.226542,0.0302583,-0.1499155,1.21668,0.02230871,0.2228033,1.611948,0.0285924,-0.1066555,1.240576,0.01682516,-0.1188852,1.215342,0.0275902,-0.2205801,1.569111,0.033898,-0.5231525,1.511911,-0.146672,-0.03962305,1.577842,-0.05351844,-0.516565,1.485472,-0.1963156,-0.2101702,1.458165,0.2516565,-0.1196428,1.395378,NA,NA,NotTracked,NotTracked,
0.3500977,1.041504,0.2524414,-0.2861328,-0.8271484,0.3583984,1,-48,-11,2,0,-5,-4,2,-11,-4,-1,0,2,5,1,-3,-105.3125,-105.3125,-105.3125,10.9375,10.9375,10.9375,7.238734,4.813599,3.234362,3.177089,5.390389,5.017899,0.01171463,-0.1492805,1.221783,0.02722501,-0.151085,1.219401,0.02204443,0.2229054,1.611819,0.02849814,-0.1085748,1.229654,0.01250456,-0.1189418,1.216016,0.02763098,-0.2203653,1.569194,0.03407725,-0.5228019,1.512113,-0.1465485,-0.03971724,1.577668,-0.05324975,-0.5163086,1.485492,-0.1959175,-0.2103607,1.457668,0.2551735,-0.1228938,1.398868,NA,NA,NotTracked,NotTracked,
0.07617188,0.7363281,0.3520508,-0.1064453,-0.8305664,0.4916992,-3,89,77,29,8,5,3,-5,-2,1,2,-2,0,1,-13,-2,-122,-122,-122,36.0625,36.0625,36.0625,7.09891,4.878854,3.252974,3.223388,5.286993,5.072203,0.006838774,-0.1521547,1.220737,0.02430433,-0.1495018,1.220379,0.02167961,0.222712,1.611462,0.026772,-0.1091459,1.222969,0.007929585,-0.11647,1.210235,0.0275267,-0.2203689,1.569496,0.03412635,-0.5223703,1.512263,-0.1471832,-0.03903536,1.578572,-0.05309063,-0.515922,1.485535,-0.1966633,-0.2114262,1.45899,0.2575104,-0.12887,1.403963,NA,NA,NotTracked,NotTracked,
0.0009765625,1.106934,0.3129883,-0.09228516,-0.6450195,0.3476563,-44,-5,-49,-14,-1,-2,-6,-12,-4,-1,-7,-1,-8,-14,-2,-1,-95.0625,-95.0625,-95.0625,42.375,42.375,42.375,6.987121,4.952778,3.237458,3.27895,5.184437,5.09759,0.003240953,-0.1486738,1.219797,0.02217609,-0.1446611,1.220108,0.02127759,0.2225976,1.611086,0.01354428,-0.1053392,1.222355,0.01699353,-0.1096845,1.203877,0.02754466,-0.220271,1.569501,0.03417769,-0.5222035,1.512314,-0.148254,-0.03837676,1.579826,-0.05297335,-0.5157781,1.485496,-0.1976866,-0.2120785,1.462273,0.2531042,-0.1422654,1.405118,NA,NA,NotTracked,NotTracked,
-0.1918945,1.285156,0.5595703,-0.01123047,-0.7529297,0.5019531,-2,20,-113,-64,-13,-7,-8,-22,0,-5,-1,6,2,3,-2,-1,-72.0625,-72.0625,-72.0625,30.625,30.625,30.625,6.911767,5.070886,3.223029,3.320013,5.046206,5.127854,0.01348981,-0.1102232,1.222465,0.02569607,-0.1012985,1.223495,0.02020581,0.2225431,1.610084,-0.01207472,-0.09714702,1.198033,0.02805262,-0.06728782,1.203211,0.02753215,-0.2199727,1.569533,0.03408585,-0.5215445,1.512613,-0.1491323,-0.03835556,1.580662,-0.052825,-0.5151957,1.485645,-0.1997955,-0.2172899,1.471458,0.2505674,-0.1565598,1.399695,NA,NA,NotTracked,NotTracked,
-0.3359375,1.273438,0.5361328,0.2182617,-0.7290039,0.565918,-18,-57,-126,-117,-20,-14,-6,-10,-8,-2,1,-2,5,11,11,0,-5.375,-5.375,-5.375,6.6875,6.6875,6.6875,6.844162,5.35092,3.216504,3.35287,4.762418,5.152646,-0.02844218,-0.2166456,1.273616,0.03602204,-0.05520297,1.234979,0.01974571,0.2220869,1.609554,-0.01104423,-0.1802441,1.2806,0.01545853,-0.01122242,1.2594,0.02747693,-0.2203129,1.569259,0.03396714,-0.5234281,1.511766,-0.1486144,-0.0398598,1.579508,-0.05316212,-0.5168208,1.484983,-0.2033703,-0.218485,1.482084,0.2414197,-0.1630788,1.398033,NA,NA,NotTracked,NotTracked,
-0.5043945,1.297852,0.59375,0.1865234,-0.8369141,0.5214844,127,102,-10,82,28,17,15,25,5,-2,-7,-7,-16,-1,-3,-2,27.25,27.25,27.25,-14.5625,-14.5625,-14.5625,6.860223,5.496626,3.221468,3.346152,4.571314,5.145964,-0.01147176,-0.2429456,1.273001,0.04840652,0.0005474521,1.252291,0.01959794,0.2220497,1.608796,0.02960984,-0.2085876,1.3023,0.04265096,0.05216689,1.276546,0.02621518,-0.2213721,1.568125,0.03364746,-0.5305081,1.509347,-0.1484549,-0.04081006,1.578583,-0.05472385,-0.5233846,1.48357,-0.2028748,-0.2201376,1.48616,0.2384815,-0.162045,1.397822,NA,NA,NotTracked,Closed,
-0.7675781,1.127441,0.2714844,0.3857422,-0.8735352,0.3901367,86,-15,-25,-31,-2,-9,-11,16,9,5,6,25,38,75,3,-1,19.6875,19.6875,19.6875,-6.375,-6.375,-6.375,6.918216,5.853896,3.271673,3.329993,4.361997,5.157658,-0.01976643,-0.3069489,1.28091,0.1238356,0.08055225,1.350343,0.01914273,0.2245746,1.605489,0.01967939,-0.2748483,1.313853,0.09456285,0.0923325,1.368051,0.02615044,-0.2216485,1.567325,0.03325994,-0.5311553,1.509059,-0.1486145,-0.04141354,1.577973,-0.05539582,-0.5239542,1.483335,-0.2176203,-0.242954,1.476823,0.2379038,-0.1362028,1.395863,NA,NA,Unknown,Unknown,
-1.088867,0.5395508,0.00390625,0.7387695,-0.8735352,0.5859375,-63,-5,-1,-18,-1,12,14,9,-37,-14,-6,-34,-8,-11,-5,-4,113.625,113.625,113.625,6.4375,6.4375,6.4375,7.21023,6.442768,3.519021,3.335376,4.174146,5.164003,-0.02509972,-0.3407677,1.287841,0.1267293,0.1614473,1.391923,0.02160908,0.2233457,1.602418,-0.02083554,-0.3105581,1.251967,0.1135367,0.1613456,1.4445,0.02721759,-0.2216541,1.567422,0.03326546,-0.5312801,1.50907,-0.1474897,-0.04194919,1.576866,-0.0554358,-0.5240439,1.483082,-0.2185408,-0.249554,1.476985,0.2366221,-0.0826906,1.367736,NA,NA,Closed,Unknown,
-0.8217773,0.5141602,-0.02685547,0.7373047,-0.9003906,0.4790039,13,0,-5,-3,0,-2,4,-6,22,6,0,5,-14,-26,-7,-2,139.75,139.75,139.75,5.1875,5.1875,5.1875,7.634521,6.725086,3.835711,3.319112,3.982302,5.1826,-0.03665761,-0.366823,1.295547,0.1496694,0.181339,1.430038,0.02619754,0.2232257,1.601109,-0.05644192,-0.3800033,1.261693,0.1254646,0.1535456,1.455724,0.02764293,-0.2214018,1.567098,0.0336858,-0.5306793,1.508673,-0.1467045,-0.04222013,1.576028,-0.05517563,-0.5230196,1.481601,-0.2197482,-0.2523494,1.480649,0.24115,-0.06758557,1.365341,NA,NA,Closed,Unknown,
-0.7163086,0.4121094,-0.01660156,0.6357422,-0.8110352,0.4560547,-33,-8,2,0,-1,-2,5,10,20,6,3,7,-24,-9,1,7,126.9375,126.9375,126.9375,12.3125,12.3125,12.3125,7.918866,6.817621,4.074117,3.324936,3.897946,5.193927,-0.05737666,-0.4010274,1.319009,0.1701302,0.1855086,1.458778,0.03277528,0.2241063,1.600904,-0.08155026,-0.4425864,1.321727,0.1490642,0.1483005,1.472667,0.02831553,-0.2206875,1.56608,0.03495036,-0.5280692,1.506463,-0.1455018,-0.04255461,1.574676,-0.0547609,-0.5204078,1.477398,-0.2226867,-0.2583202,1.492795,0.2553625,-0.01662852,1.366536,NA,NA,Unknown,Unknown,
-0.7387695,0.04199219,-0.3999023,0.6616211,-0.7729492,0.3515625,6,15,12,9,5,-6,-24,-11,-22,0,0,-19,-2,-7,10,10,107.4375,107.4375,107.4375,17.75,17.75,17.75,8.755351,6.800069,4.696171,3.325325,3.808539,5.232281,-0.07163364,-0.4189864,1.342664,0.1454308,0.2432381,1.477982,0.03629893,0.226294,1.601585,-0.1109401,-0.4180763,1.320968,0.1269215,0.207588,1.5082,0.02957708,-0.2194252,1.564564,0.03652823,-0.5256116,1.503913,-0.1448002,-0.04259464,1.573954,-0.05389414,-0.5189037,1.474284,-0.2069365,-0.239827,1.525444,0.2601699,0.01850751,1.373924,NA,NA,Unknown,Unknown,
-1.077148,0.05957031,-0.6958008,0.6943359,-0.6176758,0.3818359,127,40,11,2,-2,1,8,34,13,2,3,17,31,10,-2,-4,81.75,81.75,81.75,15,15,15,8.566925,6.788689,4.378978,3.3421,3.753626,5.238328,-0.08045731,-0.4221272,1.354342,0.1509684,0.2633764,1.45503,0.03848342,0.2276214,1.601644,-0.1262571,-0.4143171,1.337104,0.1303648,0.2228593,1.47575,0.03041152,-0.2184849,1.563806,0.03815784,-0.5234792,1.5023,-0.1446024,-0.04253066,1.573761,-0.05253959,-0.5167509,1.472438,-0.2068808,-0.2400934,1.528029,0.2600321,0.02645243,1.375894,NA,NA,Unknown,Unknown,
-0.6015625,0.1577148,-0.1499023,0.6860352,-0.6621094,0.3999023,-23,17,-6,-1,3,3,1,-8,-6,0,0,-2,17,8,-1,0,96.1875,96.1875,96.1875,-13.0625,-13.0625,-13.0625,8.153918,6.790672,3.809482,3.334738,3.713598,5.238708,-0.08495184,-0.4291181,1.360864,0.166828,0.2775319,1.410544,0.03858483,0.2271453,1.602206,-0.1316082,-0.4262048,1.345444,0.1367813,0.2517513,1.441833,0.03143601,-0.2176211,1.563004,0.04067113,-0.5207622,1.500425,-0.1445944,-0.04247948,1.573677,-0.05052362,-0.5147758,1.470528,-0.2058352,-0.2404505,1.531893,0.2610961,0.03035355,1.377427,NA,NA,Unknown,Unknown,
-0.3789063,1.259277,0.480957,0.7617188,-0.668457,0.3925781,-8,-37,-58,-32,-12,1,-4,-2,2,0,-1,21,-19,-15,-3,-2,124.8125,124.8125,124.8125,32.625,32.625,32.625,7.838647,6.711333,3.317707,3.329953,3.678567,5.275172,-0.09626317,-0.4357879,1.375351,0.1789107,0.3051913,1.36943,0.03757727,0.2243194,1.60545,-0.1434388,-0.4349444,1.363115,0.14689,0.2925891,1.419455,0.03282538,-0.2165401,1.56217,0.04389567,-0.5180424,1.498586,-0.1447773,-0.04248938,1.573605,-0.04784896,-0.5130737,1.468421,-0.2038172,-0.2454479,1.536863,0.2625544,0.03450456,1.375389,NA,NA,Unknown,Open,
0.7075195,0.6674805,1.283203,0.7744141,-0.621582,0.3823242,-14,16,45,12,8,33,-22,3,-11,-3,-1,-8,-17,-6,3,3,-4.375,-4.375,-4.375,34.3125,34.3125,34.3125,7.818705,6.722286,3.297961,3.35219,3.655446,5.299598,-0.09925516,-0.440358,1.37731,0.1781928,0.2831054,1.387737,0.03735619,0.2242686,1.606044,-0.1365791,-0.4580629,1.357769,0.1491863,0.255987,1.417125,0.03324581,-0.2162,1.56179,0.04434118,-0.5176197,1.498134,-0.1448516,-0.04246809,1.573594,-0.04747247,-0.512565,1.468005,-0.2026493,-0.2483906,1.538976,0.2630318,0.03464318,1.374658,NA,NA,Unknown,Open,
-1.243652,0.4643555,-0.2856445,0.7353516,-0.6083984,0.3374023,2,-17,-16,-7,-9,-40,9,-14,-11,-3,2,1,0,-1,3,-1,13.875,13.875,13.875,14.25,14.25,14.25,8.501464,6.842281,4.362951,3.3602,3.631588,5.335804,-0.1036427,-0.4484529,1.37824,0.1572446,0.2573804,1.455383,0.03816188,0.2253968,1.605758,-0.1435406,-0.4666575,1.363852,0.1351338,0.2170681,1.4861,0.03348114,-0.2157454,1.561009,0.04419282,-0.5174657,1.497464,-0.1446491,-0.04245439,1.573409,-0.04765508,-0.512387,1.467761,-0.2007563,-0.2538999,1.541246,0.2624959,0.03255976,1.373118,NA,NA,Unknown,Open,
-1.378906,0.1987305,-1.306152,0.7280273,-0.5146484,0.3081055,-18,11,5,2,9,86,-13,69,2,0,1,3,-1,2,-1,-1,-87.375,-87.375,-87.375,3.125,3.125,3.125,8.912868,6.8126,4.857005,3.353996,3.620351,5.363128,-0.1055118,-0.4543497,1.37743,0.1541717,0.2564115,1.470935,0.04122771,0.2282938,1.605199,-0.1450426,-0.4540705,1.361156,0.1302474,0.2139098,1.4949,0.03356973,-0.2155803,1.560685,0.04407636,-0.5174726,1.497156,-0.1444577,-0.04245397,1.57327,-0.04777483,-0.5123386,1.467629,-0.1992643,-0.258549,1.541661,0.2612443,0.03242573,1.373229,NA,NA,Unknown,Unknown,
-0.9482422,0.2363281,-0.7983398,0.7709961,-0.5488281,0.3085938,6,0,5,3,0,-3,-3,-6,-2,-1,-2,-2,-6,-5,-4,-5,78.875,78.875,78.875,-1.9375,-1.9375,-1.9375,8.741154,6.92895,4.621005,3.334491,3.612336,5.386295,-0.1090426,-0.457893,1.376339,0.1756071,0.270147,1.4315,0.04171368,0.2287023,1.604728,-0.1496278,-0.4524004,1.360819,0.1396244,0.2522793,1.471333,0.03372996,-0.2154744,1.560106,0.04403107,-0.517508,1.496394,-0.1442737,-0.04246941,1.57313,-0.04793946,-0.512258,1.467011,-0.1981627,-0.2611941,1.541764,0.2586013,0.03214935,1.373286,NA,NA,Unknown,Unknown,
-0.5771484,0.2973633,-0.2836914,0.7851563,-0.5390625,0.3056641,-1,-25,-29,-7,-7,-3,-19,-10,7,1,1,1,4,-5,-5,-1,51.8125,51.8125,51.8125,10.6875,10.6875,10.6875,8.019451,6.978337,3.777628,3.321869,3.594099,5.412659,-0.1111463,-0.4600433,1.375897,0.190195,0.2829834,1.386117,0.04061928,0.2271123,1.605044,-0.1454314,-0.462962,1.35831,0.1583937,0.2769501,1.436143,0.03410136,-0.2155284,1.559912,0.04456565,-0.5172489,1.495727,-0.1443806,-0.04250463,1.573092,-0.04752467,-0.5121711,1.466404,-0.19766,-0.2619571,1.542153,0.2581843,0.03136755,1.371044,NA,NA,Unknown,Unknown,
0.1206055,0.293457,0.9101563,0.8022461,-0.5083008,0.2636719,3,26,69,67,17,20,25,14,-6,-13,22,11,2,0,5,-1,-22.0625,-22.0625,-22.0625,20.3125,20.3125,20.3125,7.309638,6.76113,3.035548,3.311295,3.526942,5.462257,-0.118008,-0.4672216,1.376863,0.1959016,0.2355758,1.320303,0.03938461,0.2261958,1.605994,-0.1595372,-0.4930665,1.373455,0.172216,0.2358142,1.366625,0.03441247,-0.2156005,1.559779,0.04509011,-0.5172527,1.495148,-0.1446216,-0.04270003,1.573092,-0.04708284,-0.5122594,1.46596,-0.1959972,-0.2655901,1.542325,0.2592656,0.01914751,1.364001,NA,NA,Unknown,Unknown,
-0.5385742,0.2709961,0.8496094,0.8432617,-0.5405273,0.2875977,-1,-7,-6,-27,-6,2,-7,-6,1,-2,1,2,1,-1,-1,-1,-147.375,-147.375,-147.375,26.5625,26.5625,26.5625,7.238974,6.617458,3.106498,3.292163,3.44895,5.516378,-0.1211807,-0.4736167,1.379169,0.1729979,0.2168589,1.292286,0.03907686,0.2261315,1.606428,-0.1604756,-0.5004809,1.366786,0.1553826,0.2250246,1.3375,0.03442684,-0.215679,1.559733,0.04478268,-0.5175196,1.494921,-0.1446775,-0.04274407,1.573082,-0.04740617,-0.5125666,1.465789,-0.1948624,-0.2685372,1.541897,0.2583307,-0.00742316,1.358333,NA,NA,Unknown,Unknown,
-1.455078,0.4794922,0.3662109,0.9052734,-0.4570313,0.1962891,-62,-48,-27,6,2,17,-1,-22,0,4,7,4,-1,-1,-11,-2,-135.625,-135.625,-135.625,39.6875,39.6875,39.6875,7.307405,6.420024,3.391541,3.278862,3.351199,5.580267,-0.130628,-0.4912326,1.38986,0.05190057,0.1805481,1.317196,0.03653605,0.2282123,1.604621,-0.1770618,-0.507311,1.385765,0.07817545,0.2055386,1.33288,0.03432862,-0.2167216,1.559076,0.04265484,-0.5214428,1.494428,-0.1438794,-0.04299643,1.572433,-0.04955859,-0.5155927,1.465636,-0.1920628,-0.2748759,1.539886,0.2470575,-0.03384498,1.347319,NA,NA,Unknown,Unknown,
-1.205078,0.659668,0.2514648,0.9482422,-0.2197266,0.1953125,-6,-1,-1,-3,-1,7,8,25,-2,0,3,0,-3,-1,-1,0,-138.6875,-138.6875,-138.6875,-40.8125,-40.8125,-40.8125,7.394141,6.14519,3.724004,3.232969,3.179297,5.625306,-0.1389415,-0.5005487,1.396962,-0.004026102,0.1359646,1.330455,0.04723014,0.2612931,1.602484,-0.1825253,-0.4932342,1.387085,0.03110666,0.1662993,1.36675,0.03310331,-0.2192269,1.557482,0.03859742,-0.5308977,1.49329,-0.1450611,-0.04317641,1.571638,-0.05367221,-0.5241691,1.466971,-0.1910454,-0.2776751,1.538845,0.213271,-0.04330986,1.347388,NA,NA,NotTracked,Unknown,
-0.8999023,0.9946289,0.03955078,0.9931641,-0.3012695,0.2021484,2,8,5,7,3,-4,-3,5,-3,0,-1,-3,-1,-2,-4,-1,-133.375,-133.375,-133.375,-64.875,-64.875,-64.875,7.378718,5.911472,3.991337,3.129232,3.088892,5.662951,-0.1540015,-0.5105514,1.395199,-0.02373677,0.0935175,1.343701,0.05064826,0.257053,1.604651,-0.1828582,-0.5109215,1.384347,0.000544183,0.1299419,1.378556,0.0319807,-0.220311,1.555149,0.03897024,-0.533429,1.492753,-0.1455991,-0.04513519,1.570298,-0.05395914,-0.5269439,1.466997,-0.1904805,-0.2779093,1.538161,0.2096365,-0.05573072,1.344717,NA,NA,NotTracked,Open,
-0.1953125,1.050781,0.03466797,0.9775391,-0.3447266,0.1391602,-55,-7,-6,-10,4,3,-11,-62,6,1,-1,-3,-1,0,-2,0,-54.375,-54.375,-54.375,-27.625,-27.625,-27.625,7.402271,5.713414,4.155015,3.054746,3.036283,5.698311,-0.1646445,-0.5262313,1.408742,-0.107184,0.05448733,1.367298,0.05767235,0.24355,1.608782,-0.1958306,-0.5242279,1.398606,-0.06841209,0.09352504,1.3585,0.03210426,-0.2203625,1.554758,0.03932481,-0.534009,1.492988,-0.1425328,-0.04624871,1.565663,-0.05387612,-0.5271969,1.466253,-0.1890977,-0.2573722,1.539604,0.1817552,-0.07227249,1.342612,NA,NA,NotTracked,Open,
0.2124023,1.17041,0.1289063,0.9389648,-0.2890625,0.1069336,-7,9,3,1,2,-2,-1,-18,-19,-5,-2,1,3,2,4,5,-74.0625,-74.0625,-74.0625,36.6875,36.6875,36.6875,7.374163,5.483905,4.328275,3.066567,3.008222,5.722816,-0.1680283,-0.5322191,1.413671,-0.1143328,0.04294339,1.378149,0.05859421,0.2401765,1.609777,-0.1999961,-0.5334841,1.40568,-0.0662578,0.08849789,1.3945,0.03245232,-0.2205199,1.555062,0.03943719,-0.534259,1.493392,-0.1407543,-0.04700199,1.563196,-0.05378383,-0.5272331,1.466008,-0.1886533,-0.2565486,1.54004,0.1672865,-0.07759189,1.345258,NA,NA,NotTracked,Open,
0.1665039,0.987793,0.07177734,0.9321289,-0.2485352,0.1606445,-10,94,20,12,71,27,-3,16,6,1,-1,-3,-1,-1,-2,-4,-80.9375,-80.9375,-80.9375,34.875,34.875,34.875,7.302872,5.425562,4.381862,3.121746,3.007571,5.709236,-0.1714436,-0.5367638,1.41831,-0.08527374,0.02585306,1.384928,0.05892508,0.2375086,1.610101,-0.2030576,-0.5323433,1.408033,-0.06016873,0.07061541,1.401812,0.03317393,-0.2207345,1.555747,0.03995675,-0.5344534,1.494201,-0.1383869,-0.04804626,1.558748,-0.05303637,-0.5271612,1.465582,-0.1881184,-0.2603996,1.541755,0.1622397,-0.08929196,1.351766,NA,NA,NotTracked,Unknown,
0.3754883,1.063965,0.06640625,0.9443359,-0.2836914,0.1538086,17,3,7,15,15,7,13,3,-16,-1,0,1,0,3,5,8,-28.375,-28.375,-28.375,34.375,34.375,34.375,7.230013,5.440763,4.364493,3.198976,3.029392,5.684812,-0.1709386,-0.5380559,1.419739,-0.07378846,0.02090121,1.384962,0.05863191,0.2370472,1.610204,-0.1999446,-0.5353344,1.405954,-0.04403666,0.06143954,1.4037,0.03336262,-0.2208616,1.555911,0.04004801,-0.5345461,1.494483,-0.1374758,-0.04771958,1.557277,-0.05285769,-0.5271692,1.465388,-0.1868509,-0.2690428,1.543318,0.1643069,-0.09819581,1.355242,NA,NA,NotTracked,Unknown,
0.4296875,1.154785,0.3027344,0.9589844,-0.237793,0.1108398,-53,-43,-24,-76,-49,-10,7,-45,9,1,-2,-3,-5,-5,-5,-9,-26.125,-26.125,-26.125,49.5,49.5,49.5,7.154427,5.534997,4.236459,3.263711,3.052001,5.671,-0.1672579,-0.5381351,1.421761,-0.02586816,0.01990249,1.36829,0.05685128,0.2363731,1.610384,-0.1952007,-0.5367218,1.40698,0.001504852,0.06107131,1.389462,0.03380085,-0.220963,1.556074,0.03985507,-0.5350689,1.495315,-0.1370918,-0.047052,1.558518,-0.05278894,-0.5275112,1.465736,-0.1858563,-0.2800498,1.546395,0.1954177,-0.1308694,1.371762,NA,NA,NotTracked,Unknown,
-0.1547852,1.037598,0.3291016,0.9331055,-0.2763672,0.1098633,80,32,-3,11,0,7,-7,17,18,2,-3,-3,-3,-4,-9,-8,-37.625,-37.625,-37.625,38.75,38.75,38.75,7.046954,5.631912,4.031613,3.312315,3.062542,5.667264,-0.1646715,-0.5417995,1.422755,-0.002377713,0.02241017,1.357867,0.05268865,0.2359201,1.610456,-0.1967042,-0.5346488,1.418586,0.02560488,0.07878274,1.3646,0.03377343,-0.2209439,1.556161,0.03943035,-0.5354414,1.495813,-0.1404063,-0.04612406,1.565178,-0.05308333,-0.5285933,1.467935,-0.1844251,-0.2879765,1.550079,0.2137637,-0.1478794,1.386835,NA,NA,NotTracked,Unknown,
-0.5634766,0.6821289,0.8803711,0.9790039,-0.2675781,0.1245117,23,-49,-46,-10,-12,18,-17,8,-3,-2,-1,-1,5,0,0,-2,87.4375,87.4375,87.4375,38.0625,38.0625,38.0625,6.891792,5.772055,3.494223,3.376941,3.058399,5.67219,-0.1591844,-0.5510197,1.42648,0.1074334,0.01322331,1.313851,0.03882413,0.2342927,1.609469,-0.1952061,-0.5475174,1.425353,0.1256688,0.05962132,1.318572,0.03063256,-0.2224585,1.556813,0.03571734,-0.5372493,1.497588,-0.153609,-0.04583414,1.581979,-0.05738547,-0.5320144,1.476473,-0.184748,-0.2958001,1.556692,0.2708205,-0.167841,1.414498,NA,NA,NotTracked,Unknown,
-0.8334961,0.6015625,0.8891602,0.9697266,-0.375,0.1904297,34,-6,2,3,-2,-5,10,-7,4,0,-1,0,-2,-2,-1,-3,140.625,140.625,140.625,-0.1875,-0.1875,-0.1875,6.804638,5.816064,3.040969,3.38929,3.017341,5.679659,-0.1573906,-0.5547493,1.43085,0.1659583,0.002177277,1.301399,0.03471914,0.2341801,1.608429,-0.1911508,-0.5669488,1.418,0.21111,0.01501131,1.303333,0.02925424,-0.2226425,1.557061,0.03369982,-0.5369166,1.498188,-0.1550868,-0.04692441,1.584486,-0.05835666,-0.5317251,1.477111,-0.1850884,-0.2977925,1.559706,0.2826821,-0.1711985,1.421282,NA,NA,NotTracked,Unknown,
-0.953125,0.3369141,0.9824219,0.9233398,-0.4135742,0.1606445,-22,8,9,8,2,-28,3,-30,2,-1,-2,-2,1,0,-2,-2,113.4375,113.4375,113.4375,10.6875,10.6875,10.6875,6.770975,5.773827,2.588005,3.386285,2.9896,5.691069,-0.1602559,-0.556958,1.444697,0.2210633,-0.01184608,1.301201,0.02910645,0.2342255,1.607245,-0.1961909,-0.5462587,1.440969,0.2607018,-0.001867319,1.297116,0.02749446,-0.2226742,1.557421,0.03057966,-0.5358055,1.500012,-0.1568332,-0.04836719,1.586997,-0.05987452,-0.5307907,1.477964,-0.1860845,-0.301888,1.5666,0.3012969,-0.1787847,1.457407,NA,NA,NotTracked,Unknown,
-1.043457,0.3041992,0.7270508,0.8984375,-0.3193359,0.1142578,-16,-6,-6,-1,-5,-16,4,-44,8,1,-2,-3,-6,-6,-4,-4,-10.4375,-10.4375,-10.4375,-7.375,-7.375,-7.375,6.723427,5.764075,2.440444,3.371703,2.957605,5.705645,-0.1627103,-0.5588518,1.451702,0.2304047,-0.01886776,1.300151,0.02790228,0.2345802,1.606603,-0.198498,-0.5671588,1.441937,0.2631111,-0.01114655,1.282321,0.02675332,-0.2225498,1.557614,0.02945581,-0.5352822,1.500844,-0.157138,-0.04835011,1.58728,-0.06050701,-0.5303344,1.478425,-0.1862414,-0.3030368,1.569264,0.3044017,-0.1809963,1.469259,NA,NA,NotTracked,Unknown,
-0.7563477,0.4853516,0.5996094,0.9594727,-0.3891602,0.1582031,-13,3,-3,10,-1,-7,-11,7,-21,-8,-3,2,5,8,10,3,-21.9375,-21.9375,-21.9375,-40.125,-40.125,-40.125,6.674016,5.794544,2.428822,3.261334,2.919432,5.758393,-0.1658483,-0.5585111,1.459178,0.22987,-0.02111305,1.301234,0.02729919,0.2343408,1.606278,-0.2005068,-0.555629,1.453035,0.2621776,-0.01323225,1.282522,0.02629922,-0.2226183,1.55791,0.02870704,-0.5351466,1.501777,-0.1572615,-0.0483607,1.587325,-0.06091922,-0.5301869,1.478952,-0.1868028,-0.3045961,1.570579,0.3041478,-0.1822227,1.474168,NA,NA,NotTracked,Lasso,
-0.6293945,0.5615234,0.5517578,0.9790039,-0.3623047,0.1391602,-5,-15,-7,-3,-3,-3,-5,-1,-14,1,-1,-1,0,2,5,5,-38.625,-38.625,-38.625,-32.75,-32.75,-32.75,6.649272,5.809155,2.435127,3.220604,2.920387,5.781546,-0.1714945,-0.5615012,1.462067,0.2148521,-0.02591116,1.29174,0.026832,0.2340527,1.605306,-0.2071078,-0.5726615,1.448539,0.2451757,-0.02037783,1.281,0.0260806,-0.2226743,1.558107,0.02843374,-0.5349511,1.502484,-0.157305,-0.04820794,1.586424,-0.0610213,-0.5298808,1.478987,-0.187793,-0.3060226,1.571143,0.3001138,-0.1887382,1.476005,NA,NA,NotTracked,Lasso,
-0.6816406,0.5341797,0.4980469,0.9892578,-0.184082,0.1308594,-18,-18,-6,-8,-3,-3,-9,-17,-6,-5,-2,2,3,0,0,-2,-65.4375,-65.4375,-65.4375,-33.75,-33.75,-33.75,6.547084,5.82232,2.480577,3.141904,2.928101,5.811123,-0.1761676,-0.5614637,1.461806,0.2045901,-0.0312335,1.285411,0.02692589,0.233869,1.605021,-0.2116369,-0.5544598,1.457111,0.1902424,0.02217413,1.3252,0.02606736,-0.2228708,1.558372,0.02844762,-0.53502,1.502861,-0.1571839,-0.04811957,1.586061,-0.06100392,-0.5298113,1.478974,-0.1881151,-0.306036,1.571035,0.3082821,-0.2246257,1.470844,NA,NA,NotTracked,Lasso,
-0.5400391,0.6489258,0.5854492,0.9775391,-0.1835938,0.1635742,-17,-58,-4,2,1,1,-1,-2,7,-1,0,0,-1,-4,-8,-7,-57.9375,-57.9375,-57.9375,-29,-29,-29,6.486252,5.712306,2.579487,3.117256,2.936386,5.802911,-0.1804209,-0.5600173,1.453788,0.167187,-0.04578795,1.275346,0.02758479,0.2335755,1.604511,-0.2082603,-0.5545751,1.439726,0.1708645,0.01616012,1.30925,0.02621553,-0.2232433,1.558794,0.0286176,-0.5351474,1.503161,-0.1569218,-0.04780194,1.584772,-0.06081928,-0.529659,1.478752,-0.1898181,-0.3057011,1.569183,0.2752896,-0.2084829,1.44732,NA,NA,NotTracked,Lasso,
-0.7861328,0.9160156,0.4916992,0.9555664,-0.2148438,0.1494141,-13,-59,-22,-29,-18,-8,0,-13,0,0,0,-1,0,0,0,0,-87.75,-87.75,-87.75,-49.875,-49.875,-49.875,6.451169,5.600411,2.713528,3.102609,2.929108,5.751636,-0.1802852,-0.5620784,1.447661,0.1431627,-0.05410141,1.272656,0.02817268,0.2331135,1.604314,-0.2079201,-0.5713536,1.426619,0.1621415,1.73397E-05,1.304692,0.02648146,-0.2236472,1.559343,0.02879694,-0.5352527,1.503366,-0.1564681,-0.04761374,1.583609,-0.0606655,-0.5295988,1.478701,-0.1907346,-0.3050562,1.567852,0.2516993,-0.2010773,1.420194,NA,NA,NotTracked,Unknown,
-0.2475586,0.6269531,1.091309,0.9389648,-0.2460938,0.1166992,12,-4,8,21,8,-10,-17,-1,-29,-18,-5,4,12,16,16,8,-32.3125,-32.3125,-32.3125,-55.8125,-55.8125,-55.8125,6.437271,5.485526,2.875223,3.072635,2.921986,5.718549,-0.1795691,-0.5603274,1.443972,0.1179423,-0.06506965,1.259735,0.02893872,0.2321575,1.604322,-0.2088437,-0.5666789,1.424154,0.1430529,-0.009241642,1.286722,0.02670093,-0.2238042,1.55969,0.02898838,-0.535363,1.503488,-0.1526822,-0.04705696,1.579313,-0.06042533,-0.5294825,1.478515,-0.1916307,-0.3048576,1.564983,0.2507709,-0.2066145,1.419936,NA,NA,NotTracked,Unknown,
-0.1523438,0.8486328,0.8989258,0.9946289,-0.1542969,0.1044922,23,-5,-32,-19,-3,-8,-4,-5,8,2,-2,0,-3,-4,-3,-5,48.875,48.875,48.875,-41.1875,-41.1875,-41.1875,6.494947,5.412257,3.007235,3.061396,2.913618,5.651779,-0.1780589,-0.5560748,1.443742,0.07204579,-0.07025328,1.244558,0.03078393,0.2303144,1.606141,-0.2079954,-0.5635711,1.432901,0.09064431,-0.01105729,1.26475,0.02738716,-0.2239657,1.560933,0.02985615,-0.5353267,1.504296,-0.1499372,-0.04602058,1.576546,-0.05939674,-0.5288368,1.478214,-0.192223,-0.3026975,1.560175,0.2574517,-0.2284181,1.425477,NA,NA,NotTracked,Unknown,
0.06591797,1.123535,1.094727,0.9433594,-0.1835938,0.1035156,21,27,84,38,12,7,4,27,-14,-4,-1,0,1,1,4,2,90,90,90,-18.125,-18.125,-18.125,6.548259,5.382165,3.06267,3.083036,2.912754,5.601179,-0.1761858,-0.5555587,1.442649,0.04713953,-0.06449449,1.25349,0.03147491,0.2297366,1.606904,-0.2067877,-0.5596641,1.431708,0.07147693,-0.01288684,1.26658,0.02786766,-0.2239394,1.561743,0.03048639,-0.5351351,1.504895,-0.1488166,-0.04564598,1.575665,-0.05859043,-0.5282488,1.478326,-0.1916052,-0.3024765,1.557304,0.250878,-0.2208554,1.419126,NA,NA,NotTracked,Unknown,
-0.0859375,0.921875,0.8364258,0.9697266,-0.1845703,0.04882813,-7,-36,-51,-51,-16,-6,-3,-2,6,2,0,-1,-2,-5,-5,-5,-16.5625,-16.5625,-16.5625,-5.75,-5.75,-5.75,6.624626,5.464164,3.407828,3.12484,2.906181,5.55227,-0.1719821,-0.5539157,1.441301,-0.006127462,-0.02624268,1.305654,0.0347022,0.2284521,1.608196,-0.2069239,-0.5580549,1.444375,0.01977318,0.02126484,1.318686,0.03077894,-0.223889,1.564232,0.03273362,-0.5345378,1.505987,-0.1478517,-0.04467029,1.574821,-0.05576889,-0.5266911,1.476891,-0.1897684,-0.300139,1.55439,0.2198045,-0.1965221,1.407232,NA,NA,NotTracked,Open,
-0.1069336,0.9174805,0.512207,0.9804688,-0.2446289,0.03613281,20,16,14,14,-1,-5,-4,30,-1,-1,-1,-1,-2,-1,1,0,23.9375,23.9375,23.9375,-1.4375,-1.4375,-1.4375,6.762372,5.653515,3.771991,3.112417,2.896898,5.558843,-0.1697595,-0.554336,1.441886,-0.03596439,-0.001841285,1.343538,0.037449,0.2280255,1.608775,-0.2047917,-0.5584335,1.443852,-0.006949744,0.03829131,1.365,0.03154319,-0.2238939,1.56456,0.03425676,-0.5351932,1.506671,-0.1463041,-0.044989,1.573668,-0.05449573,-0.5270376,1.475901,-0.1883061,-0.300659,1.553205,0.2154367,-0.193056,1.406523,NA,NA,NotTracked,Open,
0.0390625,0.7285156,0.3808594,0.9858398,-0.1928711,0.02685547,29,-29,-14,-6,-7,2,15,70,-4,-5,-1,-1,2,2,1,2,8.875,8.875,8.875,14.6875,14.6875,14.6875,6.9138,5.749693,4.103127,3.108821,2.890032,5.574932,-0.167454,-0.5541612,1.442217,-0.01848728,-0.01708121,1.421023,0.04123628,0.2274532,1.608907,-0.1995734,-0.5555967,1.439366,-0.001153652,0.03055326,1.419318,0.03229399,-0.2237506,1.56468,0.03571445,-0.535346,1.507154,-0.1293473,-0.0392593,1.556035,-0.05291259,-0.526325,1.473847,-0.1857587,-0.2972755,1.551884,0.1979513,-0.1711305,1.411981,NA,NA,NotTracked,Unknown,
-0.01269531,0.6494141,0.1772461,0.9458008,-0.2006836,0.04736328,-21,11,21,5,0,-1,-26,-35,0,-1,-1,-2,-1,1,1,0,-3.25,-3.25,-3.25,17.9375,17.9375,17.9375,7.0889,5.779466,4.473708,3.100401,2.884905,5.609119,-0.1665056,-0.5547938,1.444316,-0.01309142,-0.02820886,1.448143,0.04239561,0.227132,1.608958,-0.1996534,-0.5597277,1.438022,0.01542097,-0.01694991,1.432375,0.0326138,-0.2239833,1.564858,0.03576128,-0.5352997,1.507278,-0.1240781,-0.03618775,1.553073,-0.05293147,-0.5260714,1.473878,-0.1842643,-0.2932457,1.551467,0.1945249,-0.1678564,1.411103,NA,NA,NotTracked,Unknown,
-0.2172852,0.8378906,-0.04541016,0.9257813,-0.1474609,0.01171875,35,-53,-10,23,9,4,15,21,-7,-3,-1,1,1,0,2,1,-50.1875,-50.1875,-50.1875,28.125,28.125,28.125,7.206953,5.701897,4.905284,3.094264,2.892548,5.644099,-0.1671816,-0.5551753,1.445539,-0.001843701,-0.03963188,1.462014,0.04284178,0.2268621,1.608988,-0.2018691,-0.5599683,1.439916,-0.01503088,-0.01842844,1.4495,0.03279769,-0.2240715,1.565141,0.03564972,-0.5351694,1.507567,-0.1242399,-0.03608241,1.553523,-0.05326433,-0.5256136,1.475247,-0.183938,-0.2933029,1.551354,0.1927211,-0.1670862,1.409286,NA,NA,NotTracked,Unknown,
-0.3466797,0.5214844,0.2529297,1.046875,-0.215332,0.1547852,-12,-18,-8,-17,-7,-6,-6,-11,-1,-3,-1,0,0,0,1,-1,72.3125,72.3125,72.3125,6,6,6,7.183309,5.779893,4.816095,3.093903,2.894225,5.672015,-0.1689638,-0.5559189,1.446565,-0.01164321,-0.03046594,1.456208,0.0434298,0.2267031,1.609095,-0.2036877,-0.548678,1.445149,-0.02996274,-0.000910475,1.447143,0.03292414,-0.2240217,1.565345,0.03558238,-0.5349739,1.507805,-0.1236795,-0.03564606,1.553874,-0.05346297,-0.5250828,1.476086,-0.1833613,-0.2929043,1.551399,0.1918708,-0.1678201,1.408193,NA,NA,NotTracked,NotTracked,
-0.8945313,1.308105,0.3173828,1.018066,-0.3139648,0.1484375,10,47,-6,-10,-3,1,-11,12,-4,-2,-2,0,1,3,2,0,-1.8125,-1.8125,-1.8125,13.125,13.125,13.125,7.105815,5.805548,4.658885,3.099763,2.89268,5.67363,-0.1693119,-0.5569707,1.447546,-0.01325458,-0.02096019,1.440019,0.04372502,0.2266885,1.609313,-0.2039344,-0.5542302,1.443088,-0.02199882,0.02477664,1.431667,0.03290707,-0.2239949,1.565345,0.03552766,-0.5349684,1.507858,-0.121301,-0.0346134,1.552156,-0.05355441,-0.5249978,1.476055,-0.1827794,-0.2913351,1.551684,0.1916526,-0.1677708,1.4081,NA,NA,NotTracked,Unknown,
-0.1289063,0.6655273,0.7426758,0.9628906,-0.2084961,0.07958984,-5,-43,-33,-32,-34,-28,-9,-2,3,0,-1,-1,-3,-2,-2,-5,7.125,7.125,7.125,12.0625,12.0625,12.0625,7.028495,5.824484,4.478544,3.168552,2.880162,5.641359,-0.1688181,-0.5539474,1.453851,-0.03065503,-0.001240512,1.417845,0.04403547,0.2261926,1.609232,-0.2030445,-0.5462117,1.450393,-0.01171349,0.03074936,1.397817,0.0329665,-0.2238587,1.565231,0.03554796,-0.5349948,1.507899,-0.1175731,-0.03372251,1.547679,-0.05361798,-0.5248727,1.47584,-0.1820949,-0.2890379,1.555091,0.1914417,-0.1680969,1.408396,NA,NA,NotTracked,Unknown,
-0.3925781,0.6484375,0.7333984,0.9438477,-0.3154297,0.09228516,5,5,-9,0,-26,-10,5,6,-3,-2,-1,-1,-1,-1,-2,-1,16.8125,16.8125,16.8125,3.125,3.125,3.125,7.009508,5.772099,4.505756,3.2087,2.871728,5.603271,-0.1680229,-0.555213,1.45736,-0.0251909,-0.00636674,1.429107,0.04422013,0.2262576,1.609456,-0.200677,-0.5523428,1.453726,0.007334722,0.03099728,1.424848,0.03296867,-0.2238021,1.565208,0.0354793,-0.5350077,1.507947,-0.1168881,-0.03354845,1.547039,-0.05376529,-0.5247915,1.475784,-0.1812915,-0.2886638,1.556786,0.1922115,-0.1677869,1.407874,NA,NA,NotTracked,Unknown,
-0.4350586,0.8657227,0.3725586,0.9443359,-0.34375,0.09228516,-11,-23,-14,-15,-10,-1,5,-4,0,1,-2,-3,-12,-3,-1,1,-24.9375,-24.9375,-24.9375,15.875,15.875,15.875,7.099376,5.715105,4.716017,3.221058,2.876043,5.603408,-0.1661985,-0.5558434,1.460689,-0.002608147,-0.03597193,1.464282,0.04437197,0.2263791,1.609459,-0.198743,-0.5554308,1.453402,-0.02376963,-0.01059387,1.459667,0.03300215,-0.2237901,1.565374,0.03482934,-0.5346797,1.508391,-0.1178295,-0.03384478,1.551706,-0.05489345,-0.5240386,1.477645,-0.1806441,-0.289553,1.559875,0.1967524,-0.1656428,1.404389,NA,NA,NotTracked,Unknown,
-0.4868164,0.8579102,0.1132813,1.030762,-0.1367188,0.06298828,28,-49,-8,1,4,-15,-5,-2,-2,-1,-1,-2,-7,-2,0,-1,-56.9375,-56.9375,-56.9375,23.8125,23.8125,23.8125,7.133976,5.639521,4.950958,3.235231,2.896678,5.630349,-0.1647568,-0.5524957,1.462638,0.002418182,-0.04150962,1.468781,0.04435688,0.2263712,1.60926,-0.1971173,-0.5526342,1.454278,0.02810332,-0.03149135,1.4507,0.03304958,-0.2237999,1.565664,0.03453254,-0.534487,1.508702,-0.1213752,-0.03474567,1.555294,-0.05537869,-0.5237132,1.47931,-0.1809289,-0.291449,1.561265,0.1981095,-0.1658193,1.403125,NA,NA,NotTracked,NotTracked,
-0.1923828,-0.09863281,0.2993164,1.008301,-0.2080078,0.1420898,-100,8,17,19,10,5,20,-5,4,0,-2,-2,2,-2,-2,-4,171.6875,171.6875,171.6875,-18.875,-18.875,-18.875,7.178722,5.749803,4.81611,3.227805,2.898843,5.625318,-0.1649838,-0.5522826,1.461427,-0.007445092,-0.02525677,1.451318,0.04447436,0.2263758,1.608858,-0.2006062,-0.5459044,1.461324,-0.01670964,0.01632714,1.449,0.03301342,-0.2237395,1.565876,0.03413548,-0.5342219,1.509094,-0.1207584,-0.03452517,1.557317,-0.05581561,-0.523344,1.480308,-0.1806922,-0.2912152,1.562574,0.199124,-0.1643972,1.401407,NA,NA,NotTracked,Unknown,
-0.6015625,1.28418,0.08886719,0.9077148,-0.2880859,0.1235352,8,2,-8,-7,-2,-6,-5,0,-1,-2,-1,1,-1,0,-1,0,53.6875,53.6875,53.6875,4.9375,4.9375,4.9375,7.186083,5.71974,4.711962,3.225561,2.904028,5.61938,-0.1647505,-0.5522346,1.461785,-0.00768974,-0.02230357,1.435848,0.04485535,0.2264272,1.608719,-0.2025322,-0.5639396,1.464,-0.01700388,0.01849017,1.428333,0.03335376,-0.2238428,1.566199,0.03407743,-0.5342066,1.509367,-0.1198441,-0.03423775,1.55609,-0.05583571,-0.5233058,1.480285,-0.1804982,-0.290573,1.563344,0.1998805,-0.1634657,1.400627,NA,NA,NotTracked,Unknown,
-0.359375,0.730957,0.4301758,0.9179688,-0.1264648,0.08642578,-3,-14,-7,2,-1,-16,-24,-8,-1,-1,0,-1,-1,-2,-2,-2,4.3125,4.3125,4.3125,-0.25,-0.25,-0.25,7.120244,5.719739,4.557781,3.240697,2.903983,5.610798,-0.1645057,-0.5515327,1.460459,-0.01949185,-0.0162005,1.417603,0.04542418,0.2265797,1.608617,-0.1968362,-0.5602621,1.453136,0.006456883,0.02132704,1.417107,0.03335055,-0.2238267,1.566206,0.03411391,-0.5342467,1.50945,-0.118608,-0.03371173,1.553543,-0.0557506,-0.5232797,1.479741,-0.1802219,-0.2895342,1.563622,0.2002867,-0.162283,1.399556,NA,NA,NotTracked,Unknown,
-0.3632813,0.7480469,0.4155273,0.9423828,-0.2353516,0.1245117,19,16,22,19,6,-2,12,5,-3,-1,-3,-2,-2,-1,-3,-3,-0.0625,-0.0625,-0.0625,-17.9375,-17.9375,-17.9375,7.012083,5.728482,4.307765,3.218132,2.901748,5.614915,-0.1647307,-0.551477,1.460036,-0.02936248,-0.005192376,1.382265,0.04702748,0.2265748,1.608305,-0.2017481,-0.5471182,1.462148,0.00323566,0.03800109,1.388368,0.03347147,-0.223802,1.566252,0.03441605,-0.5344948,1.509776,-0.1189867,-0.03422542,1.552721,-0.05546821,-0.5235009,1.479311,-0.1802097,-0.290025,1.564047,0.2005877,-0.1616072,1.399349,NA,NA,NotTracked,Unknown,
-0.2421875,0.7329102,0.5898438,0.9833984,-0.2260742,0.1362305,13,8,2,0,-1,-13,2,10,-1,0,-2,-3,-1,-2,-3,0,-1.6875,-1.6875,-1.6875,9.25,9.25,9.25,6.941025,5.711943,4.176071,3.226654,2.900903,5.609489,-0.1644674,-0.5505627,1.459482,-0.02955187,-0.00541047,1.370477,0.0476077,0.2263448,1.60814,-0.2009623,-0.5482746,1.461452,0.003977656,0.03626655,1.375,0.03352668,-0.2237945,1.566253,0.03460618,-0.5346448,1.509832,-0.1221149,-0.03663141,1.554735,-0.05522649,-0.5237848,1.478998,-0.1809916,-0.2931403,1.564506,0.2002003,-0.1609702,1.399028,NA,NA,NotTracked,Unknown,
-0.2333984,0.7441406,0.671875,0.9731445,-0.203125,0.09765625,6,6,-11,-18,-9,-9,-4,0,2,2,-1,-1,-3,-3,-3,-3,2,2,2,3.375,3.375,3.375,6.877727,5.680246,4.105717,3.241299,2.898163,5.601388,-0.1644533,-0.5513748,1.459733,-0.02985819,-0.007709454,1.370114,0.04807502,0.2264781,1.608244,-0.2002302,-0.5524839,1.460295,0.003264752,0.03311402,1.37487,0.03356013,-0.2237961,1.566279,0.03476059,-0.5347769,1.510018,-0.123403,-0.0376394,1.555557,-0.05509209,-0.5239155,1.478858,-0.1812608,-0.2944135,1.56498,0.2007009,-0.1611275,1.399419,NA,NA,NotTracked,Open,
-0.2333984,0.7441406,0.671875,0.9731445,-0.203125,0.09765625,6,6,-11,-18,-9,-9,-4,0,2,2,-1,-1,-3,-3,-3,-3,2,2,2,3.375,3.375,3.375,6.877727,5.680246,4.105717,3.241299,2.898163,5.601388,-0.1636807,-0.5507925,1.45812,-0.02901781,-0.01112331,1.376451,0.04858362,0.226338,1.607988,-0.1949285,-0.5580447,1.446304,0.002902437,0.03326647,1.383931,0.03359012,-0.223819,1.566267,0.03487846,-0.534923,1.510028,-0.1233846,-0.03773509,1.555379,-0.05493976,-0.5241421,1.478446,-0.1812461,-0.2944977,1.564969,0.2012144,-0.1614641,1.399798,NA,NA,NotTracked,Open,
-0.4526367,0.8720703,0.4580078,0.9628906,-0.2319336,0.08886719,-37,2,-6,-7,-3,-9,-12,3,13,2,-2,-3,-4,-3,-8,-3,-37.9375,-37.9375,-37.9375,-8.3125,-8.3125,-8.3125,6.858083,5.675447,4.15788,3.237399,2.897455,5.598051,-0.1636678,-0.5480042,1.459919,-0.02512887,-0.01719112,1.388056,0.04892925,0.2264203,1.607969,-0.1964073,-0.5408088,1.453075,0.003759619,0.02527304,1.394875,0.03361496,-0.2237872,1.566273,0.03497934,-0.5348579,1.510077,-0.1234127,-0.0375334,1.55507,-0.05478612,-0.524061,1.478344,-0.1811192,-0.2943205,1.564874,0.2024149,-0.1635012,1.401967,NA,NA,NotTracked,Unknown,
-0.4414063,0.7431641,0.3256836,0.9624023,-0.2280273,0.09570313,-3,13,-1,-2,-3,-9,-9,-15,-2,-2,-1,-1,-1,0,0,-1,-24.5,-24.5,-24.5,2.25,2.25,2.25,6.849426,5.684583,4.229614,3.221865,2.902092,5.609929,-0.1635751,-0.5481207,1.459393,-0.002066445,-0.04678413,1.392302,0.04926018,0.2263731,1.607785,-0.1977722,-0.5474238,1.454724,0.01597542,-0.04255674,1.362118,0.03362242,-0.2237753,1.566275,0.03504548,-0.5347957,1.51009,-0.1226215,-0.03710482,1.553935,-0.05468315,-0.523958,1.478252,-0.1809041,-0.2936654,1.56477,0.2032286,-0.166132,1.404622,NA,NA,NotTracked,Unknown,
-0.3837891,0.8701172,0.2407227,0.9760742,-0.190918,0.1049805,11,3,1,0,-1,-1,1,6,-7,-2,0,-2,0,1,3,0,-28.0625,-28.0625,-28.0625,0.5,0.5,0.5,6.850286,5.669444,4.283866,3.21343,2.909178,5.622038,-0.1633846,-0.5470991,1.458712,-0.02054399,-0.04176838,1.408629,0.04975267,0.2263562,1.607715,-0.1961323,-0.5571015,1.453169,-0.05768103,-0.0571995,1.396487,0.03366393,-0.2237351,1.566307,0.03525712,-0.5345377,1.510165,-0.1222048,-0.03689313,1.553208,-0.05431083,-0.5234907,1.478004,-0.1808519,-0.2933217,1.564708,0.2076721,-0.1731912,1.411812,NA,NA,NotTracked,Unknown,
-0.3769531,0.7636719,0.2929688,0.9716797,-0.2075195,0.125,4,7,1,1,-4,-5,0,1,0,0,0,-2,-2,-2,-4,-1,-36.0625,-36.0625,-36.0625,2.5,2.5,2.5,6.806302,5.631565,4.263153,3.21351,2.916319,5.624132,-0.1633123,-0.5471901,1.456827,-0.0220172,-0.04992978,1.406178,0.04978542,0.2263305,1.607687,-0.1969654,-0.550364,1.453068,-0.02295043,-0.0960118,1.437,0.03407532,-0.2238211,1.566441,0.03529371,-0.534436,1.510153,-0.1222149,-0.03689542,1.553165,-0.05424357,-0.5233709,1.478012,-0.1808098,-0.2933772,1.564472,0.2099015,-0.1772648,1.416397,NA,NA,NotTracked,Closed,
-0.206543,0.6865234,0.3535156,0.9423828,-0.2211914,0.1279297,-2,-5,-2,0,0,-5,-2,-4,-6,0,-1,-1,1,-3,-2,0,-20.9375,-20.9375,-20.9375,4.5,4.5,4.5,6.756122,5.555456,4.196639,3.22526,2.926595,5.617087,-0.1624298,-0.5491906,1.452623,-0.01400808,-0.0823691,1.385293,0.04982682,0.2263169,1.607699,-0.1962742,-0.550736,1.44964,-0.02049011,-0.12716,1.421733,0.03462379,-0.2238224,1.566687,0.03552767,-0.5336865,1.510062,-0.1242477,-0.03706675,1.554444,-0.05381768,-0.5226682,1.478364,-0.1809625,-0.2941829,1.564195,0.2176948,-0.185707,1.426597,NA,NA,NotTracked,Open,
-0.1831055,0.668457,0.3417969,0.9379883,-0.2177734,0.125,-1,-2,-1,-1,-1,-3,-3,-1,2,1,0,-1,-3,-3,-3,-1,-21.25,-21.25,-21.25,5.9375,5.9375,5.9375,6.729312,5.504202,4.150774,3.237218,2.935289,5.611833,-0.1620467,-0.5495393,1.452438,-0.01950527,-0.1027894,1.370884,0.04972127,0.2263825,1.607814,-0.1957093,-0.5526163,1.44864,-0.03824456,-0.1461849,1.395353,0.03486608,-0.223829,1.56693,0.03552824,-0.5333518,1.510204,-0.1267793,-0.03723554,1.556973,-0.05359284,-0.5220058,1.479947,-0.1812305,-0.2951174,1.564258,0.2224858,-0.1903314,1.432749,NA,NA,NotTracked,Open,
-0.1142578,0.4975586,0.3491211,0.9467773,-0.2290039,0.1181641,-3,2,-2,-1,2,0,-8,0,-1,-1,-2,0,-3,0,-4,-1,-17.4375,-17.4375,-17.4375,4.375,4.375,4.375,6.623442,5.152413,3.875855,3.237147,2.939724,5.617635,-0.1611929,-0.5490936,1.452152,-0.03674014,-0.1300789,1.353794,0.04946207,0.2265529,1.608125,-0.1966983,-0.5511044,1.451032,-0.05178723,-0.1577181,1.325361,0.03504934,-0.2236486,1.567356,0.03526578,-0.5324891,1.510584,-0.1379571,-0.04001414,1.572785,-0.053608,-0.5209048,1.48299,-0.1822328,-0.2998236,1.564648,0.2258841,-0.1977822,1.436815,NA,NA,NotTracked,Unknown,
0.3828125,0.6499023,0.2866211,0.9780273,-0.2226563,0.1152344,-3,-3,-4,-1,-2,-16,0,-1,0,0,0,-1,-2,-4,-2,-2,-27.875,-27.875,-27.875,8.125,8.125,8.125,6.596431,4.866971,3.706579,3.238304,2.944377,5.628731,-0.1603943,-0.5526754,1.452335,-0.006055134,-0.2481589,1.312792,0.04806106,0.2270381,1.609889,-0.1974499,-0.5513343,1.453055,-0.01905278,-0.3022882,1.336522,0.03516773,-0.2232337,1.568373,0.03481992,-0.5311847,1.511304,-0.1390934,-0.04009243,1.578859,-0.05371845,-0.5195804,1.485296,-0.1821856,-0.2997198,1.564747,0.2340548,-0.2181263,1.448325,NA,NA,NotTracked,Unknown,
0.05224609,0.3901367,-0.3085938,1,-0.2392578,0.1108398,-34,-7,-4,-6,-3,-4,15,-12,0,-1,-1,-1,-3,-3,0,-1,7.1875,7.1875,7.1875,6.0625,6.0625,6.0625,6.657498,4.341712,3.443597,3.237546,2.944371,5.639616,-0.1601077,-0.5529389,1.452061,0.00994892,-0.3183496,1.293289,0.04718658,0.2269959,1.610675,-0.1970888,-0.5509273,1.452267,0.006429489,-0.3752141,1.312629,0.03522715,-0.2232347,1.568692,0.03480804,-0.5311279,1.511475,-0.1395357,-0.04108788,1.580848,-0.05367427,-0.5195891,1.485362,-0.1821802,-0.2997634,1.564789,0.2351768,-0.2248234,1.456652,NA,NA,NotTracked,Unknown,
0.2792969,0.4536133,-0.4599609,1.001953,-0.2348633,0.09179688,0,-2,0,2,1,-21,-9,10,8,4,0,-2,-4,-4,-5,-1,-2.6875,-2.6875,-2.6875,9.125,9.125,9.125,6.820368,3.792584,3.156902,3.239087,2.943238,5.648052,-0.1594827,-0.5567292,1.451751,0.107523,-0.4268339,1.317423,0.04494787,0.2278834,1.612084,-0.1974795,-0.5516778,1.453771,0.1357683,-0.4813448,1.3286,0.03487773,-0.2234781,1.570135,0.03403555,-0.5316974,1.51355,-0.140812,-0.04304953,1.582206,-0.05436824,-0.5199324,1.486709,-0.1821342,-0.3002825,1.565682,0.2356918,-0.2388363,1.480183,NA,NA,NotTracked,Unknown,
1.596191,0.3613281,0.1547852,0.9492188,-0.2607422,0.09326172,-2,0,-2,0,-4,-11,-3,-1,-3,-4,-1,0,1,3,1,-2,-6.75,-6.75,-6.75,8.1875,8.1875,8.1875,7.076764,3.425349,2.836473,3.23088,2.938376,5.66809,-0.1588891,-0.5573573,1.4523,0.1432564,-0.4808025,1.336253,0.04347723,0.2279138,1.612693,-0.1968144,-0.55539,1.450986,0.1900939,-0.5208103,1.356778,0.03365422,-0.2237989,1.570079,0.02893774,-0.5325544,1.51242,-0.1427778,-0.04367458,1.585095,-0.05992613,-0.5197209,1.485422,-0.1821221,-0.3003791,1.566224,0.2355433,-0.2469246,1.487303,NA,NA,NotTracked,Unknown,
1.63623,0.4589844,-0.01220703,0.9326172,-0.2451172,0.1040039,4,3,0,0,-1,-2,-11,-11,-2,-2,-1,-2,0,-1,0,-1,-11.4375,-11.4375,-11.4375,13.3125,13.3125,13.3125,7.422369,3.178327,2.430274,3.229271,2.936881,5.683712,-0.1593429,-0.5606174,1.453903,0.2215871,-0.5639123,1.36888,0.04119962,0.2279233,1.613162,-0.1957555,-0.5604629,1.447855,0.2588302,-0.5524763,1.367,0.03291256,-0.224115,1.570108,0.02790391,-0.5329796,1.512036,-0.1451733,-0.04452868,1.588594,-0.06069303,-0.5205069,1.484975,-0.1824944,-0.3006406,1.568417,0.2403352,-0.2788808,1.499527,NA,NA,NotTracked,Unknown,
1.396973,0.4716797,0.01074219,0.9282227,-0.2426758,0.1386719,-2,-4,-2,-3,-7,2,-10,0,2,-3,-1,-1,0,-1,-1,0,-65.3125,-65.3125,-65.3125,10.625,10.625,10.625,7.697264,3.038428,2.073709,3.232192,2.93281,5.694419,-0.1597714,-0.5606542,1.453825,0.2431898,-0.5645591,1.395919,0.04032481,0.2280102,1.612764,-0.1960561,-0.5536695,1.449101,0.2754888,-0.5527247,1.383021,0.03296366,-0.2242211,1.570066,0.02854402,-0.5334018,1.512126,-0.1459043,-0.04494188,1.589243,-0.0597168,-0.5214232,1.484921,-0.1828547,-0.300613,1.569285,0.2447796,-0.2860652,1.505122,NA,NA,NotTracked,Unknown,
1.090332,0.4257813,-0.2490234,0.9667969,-0.2651367,0.1821289,-3,-4,-2,-1,0,-8,-3,-1,0,-1,-1,-1,-2,-2,0,0,-66.75,-66.75,-66.75,5.6875,5.6875,5.6875,7.667303,2.915168,1.967655,3.234924,2.921076,5.70488,-0.1620091,-0.561538,1.459634,0.2638912,-0.5694585,1.446011,0.03859097,0.2284314,1.611917,-0.1989429,-0.556398,1.453654,0.2928793,-0.5880046,1.4285,0.03296497,-0.2242642,1.570064,0.02922353,-0.533619,1.513079,-0.1471649,-0.04548216,1.590615,-0.05889457,-0.5221943,1.485981,-0.183696,-0.3021688,1.572181,0.2679655,-0.2968495,1.532799,NA,NA,NotTracked,NotTracked,
0.2255859,0.1572266,0.07568359,0.9819336,-0.2646484,0.1606445,0,-2,0,-1,-5,19,19,2,-1,-1,0,-1,0,-2,-1,-2,-47.625,-47.625,-47.625,3.5625,3.5625,3.5625,7.566071,2.856561,1.980093,3.24097,2.912518,5.703602,-0.1623074,-0.5595903,1.461362,0.267721,-0.5608845,1.465459,0.03769124,0.2289339,1.6111,-0.1999539,-0.5522636,1.457071,0.2981929,-0.5383068,1.455487,0.03294041,-0.2242582,1.570053,0.02925124,-0.5336275,1.513462,-0.1476,-0.04560731,1.590863,-0.05888699,-0.5224912,1.486553,-0.1838164,-0.3021688,1.573028,0.2760726,-0.2956848,1.545465,NA,NA,NotTracked,NotTracked,
1.429688,0.4941406,0.6474609,0.9541016,-0.2436523,0.1098633,0,0,-1,0,-1,-1,-3,-2,-2,0,0,0,0,-1,-1,0,-33.8125,-33.8125,-33.8125,-5.125,-5.125,-5.125,7.248224,2.829418,2.250546,3.258255,2.90871,5.683798,-0.163587,-0.5634071,1.462234,0.2688424,-0.5535723,1.496945,0.03651056,0.2289218,1.609273,-0.199563,-0.5570836,1.45574,0.3026229,-0.5381489,1.497,0.03289516,-0.2242434,1.570023,0.02953478,-0.5335608,1.514268,-0.1480512,-0.04566529,1.591028,-0.05860256,-0.5227215,1.487419,-0.1841038,-0.3025778,1.573913,0.2835259,-0.2921947,1.565805,NA,NA,NotTracked,NotTracked,
1.251465,0.3574219,0.722168,0.9584961,-0.262207,0.1113281,0,-1,-1,-4,0,10,-6,-1,-1,-3,-2,0,0,-2,-1,-1,-25.3125,-25.3125,-25.3125,-10.4375,-10.4375,-10.4375,7.029733,2.809327,2.427526,3.26432,2.912312,5.666147,-0.1625943,-0.5641903,1.46241,0.2672088,-0.5537068,1.506969,0.03626872,0.2291993,1.608864,-0.2007102,-0.5643461,1.459077,0.3003197,-0.5454931,1.506059,0.032905,-0.2242532,1.570043,0.02980097,-0.5336418,1.515007,-0.1481792,-0.04568473,1.591084,-0.0583725,-0.5229715,1.488149,-0.1841616,-0.3029257,1.574448,0.2832836,-0.2922644,1.573363,NA,NA,NotTracked,NotTracked,
0.4750977,0.3334961,-0.3310547,0.9580078,-0.2373047,0.1079102,0,-3,-1,-2,-1,0,-5,0,-1,0,0,-1,-2,0,1,-1,-34.4375,-34.4375,-34.4375,-9.5625,-9.5625,-9.5625,7.040333,2.814164,2.384328,3.261721,2.916544,5.651936,-0.1619739,-0.5632537,1.459038,0.2606686,-0.5579622,1.51055,0.03593335,0.2293286,1.607676,-0.200041,-0.5558441,1.458367,0.2923313,-0.5559103,1.509,0.03297661,-0.2243499,1.570028,0.03056893,-0.5339112,1.516031,-0.1483,-0.04561787,1.590995,-0.05775705,-0.5235125,1.488844,-0.1841542,-0.3030154,1.574571,0.2786302,-0.2942569,1.580426,NA,NA,NotTracked,NotTracked,
1.245117,0.4301758,-0.2353516,0.9609375,-0.2270508,0.1054688,-1,-1,-1,-1,-2,-2,-3,-4,-6,-6,-3,-1,1,1,2,1,-49.5,-49.5,-49.5,-13.75,-13.75,-13.75,6.952402,2.834406,2.392913,3.256485,2.916349,5.642514,-0.1616942,-0.5634505,1.458588,0.2575606,-0.5585883,1.508787,0.03595439,0.2295098,1.607187,-0.1992932,-0.5543644,1.457753,0.2892478,-0.5435361,1.511895,0.03302362,-0.2243803,1.570079,0.03124954,-0.534085,1.516712,-0.1483192,-0.0455348,1.590822,-0.05725033,-0.5237227,1.489179,-0.1841397,-0.3030357,1.574575,0.2758273,-0.2949687,1.582462,NA,NA,NotTracked,NotTracked,
1.258301,0.1147461,0.09765625,0.9682617,-0.2211914,0.1166992,2,1,-1,-2,1,13,5,2,-4,-4,-1,0,0,1,0,-1,-40.8125,-40.8125,-40.8125,-14.9375,-14.9375,-14.9375,7.015676,2.842893,2.281807,3.249424,2.917468,5.624024,-0.1611414,-0.562532,1.455278,0.2570008,-0.5610725,1.50163,0.03623032,0.2295424,1.60646,-0.1987491,-0.5567452,1.454856,0.2937854,-0.5687528,1.5155,0.03324099,-0.2244337,1.570133,0.03262492,-0.5342789,1.517369,-0.1483207,-0.04535374,1.589853,-0.0560734,-0.5240641,1.489377,-0.1840995,-0.3027853,1.574187,0.272272,-0.2960779,1.582837,NA,NA,NotTracked,NotTracked,
1.035645,0.05664063,-0.08447266,0.9697266,-0.2182617,0.1137695,0,0,0,0,-3,-9,3,-1,-2,0,0,-1,-2,-2,-1,-2,7.5625,7.5625,7.5625,-10.375,-10.375,-10.375,7.099484,2.852195,2.196631,3.242096,2.918549,5.618053,-0.1606263,-0.561128,1.452843,0.2571788,-0.5603532,1.495545,0.03649101,0.2297354,1.605786,-0.1954067,-0.5600443,1.445731,0.2921904,-0.5581505,1.50325,0.03345516,-0.224473,1.57003,0.03305963,-0.5343102,1.517374,-0.1483609,-0.04522,1.58899,-0.05563748,-0.5241491,1.489188,-0.1840237,-0.3024794,1.572798,0.2711279,-0.2964694,1.582284,NA,NA,NotTracked,NotTracked,
0.9985352,0.1303711,0.04492188,0.9599609,-0.2045898,0.1079102,0,-2,0,1,-1,8,-3,-2,2,-1,-2,-1,-2,-3,-2,0,25.4375,25.4375,25.4375,-6.75,-6.75,-6.75,7.124106,2.866094,2.198419,3.237772,2.921931,5.614331,-0.1609947,-0.5606624,1.451955,0.2581918,-0.5623683,1.491844,0.03668471,0.2297955,1.605506,-0.1995183,-0.5578877,1.454014,0.2948193,-0.5657972,1.501,0.0336128,-0.2245364,1.569961,0.03342289,-0.5343844,1.51734,-0.1483798,-0.04513659,1.588103,-0.05524502,-0.524284,1.488972,-0.184136,-0.3020296,1.571773,0.2707194,-0.2968535,1.581866,NA,NA,NotTracked,NotTracked,
0.949707,0.1079102,0.1191406,0.9619141,-0.2026367,0.1308594,-1,-2,1,-1,0,3,0,-1,-1,-1,0,0,-1,0,-3,-8,4.5,4.5,4.5,-5.875,-5.875,-5.875,7.065857,2.887504,2.276636,3.237644,2.926129,5.608107,-0.1601393,-0.5594134,1.447541,0.2569983,-0.5596461,1.482864,0.03704477,0.2297746,1.604881,-0.1992774,-0.5590607,1.447544,0.2910672,-0.5503827,1.482077,0.03393036,-0.2245809,1.569621,0.03398116,-0.5344378,1.517066,-0.14834,-0.04487806,1.586252,-0.05460401,-0.5244187,1.488289,-0.184093,-0.301182,1.568677,0.2702282,-0.2973922,1.580251,NA,NA,NotTracked,NotTracked,
0.9233398,0.1289063,0.09912109,0.9638672,-0.2382813,0.1142578,-1,0,-1,0,-1,-2,-5,-2,-3,0,1,-1,0,-2,-2,-3,-4.9375,-4.9375,-4.9375,-4.6875,-4.6875,-4.6875,7.03206,2.893317,2.307738,3.23259,2.934375,5.604563,-0.1602029,-0.5585448,1.447209,0.2564742,-0.5617592,1.480625,0.03730487,0.2297948,1.604631,-0.1996369,-0.5566728,1.451929,0.2925317,-0.5545241,1.490017,0.03401959,-0.2246036,1.569475,0.03429719,-0.534434,1.51684,-0.1483313,-0.04476462,1.585763,-0.05425636,-0.5244063,1.487815,-0.1842112,-0.3008426,1.567964,0.2699599,-0.2976432,1.579537,NA,NA,NotTracked,NotTracked,
0.9189453,0.1293945,0.08105469,0.9760742,-0.2216797,0.1142578,-2,0,-1,-1,-1,-2,-1,0,0,-1,0,-1,-1,-2,-4,-2,-8.3125,-8.3125,-8.3125,2.8125,2.8125,2.8125,7.019175,2.893921,2.315944,3.22976,2.937395,5.60867,-0.1606797,-0.5584977,1.447838,0.2562168,-0.5619415,1.480452,0.03744816,0.2298506,1.60464,-0.1994352,-0.5641104,1.441625,0.2889979,-0.552851,1.478824,0.03416443,-0.2246329,1.569454,0.03447887,-0.5344222,1.516815,-0.1483267,-0.04469072,1.585628,-0.05408826,-0.5244173,1.487693,-0.1842265,-0.3008733,1.567649,0.2697254,-0.297874,1.579282,NA,NA,NotTracked,NotTracked,
0.9643555,0.1679688,0.04248047,0.9726563,-0.2055664,0.1049805,-1,-2,1,-1,2,7,-2,0,-1,-1,-2,1,-1,-1,1,-2,-10.875,-10.875,-10.875,3.4375,3.4375,3.4375,7.004226,2.886175,2.304611,3.239406,2.937273,5.603292,-0.160594,-0.5603846,1.443813,0.255284,-0.5603895,1.476728,0.03796827,0.2295903,1.604242,-0.200828,-0.5581794,1.438805,0.2899852,-0.5469307,1.478667,0.03432491,-0.2246744,1.569281,0.0349953,-0.5344676,1.516392,-0.1481864,-0.04468291,1.584794,-0.05356643,-0.5245418,1.486876,-0.1843299,-0.3004217,1.566391,0.2683077,-0.2985591,1.577459,NA,NA,NotTracked,NotTracked,
1.032715,0.1088867,0.05517578,0.9697266,-0.2177734,0.1191406,0,-1,-1,0,-2,-2,-16,-2,-3,-2,-1,-1,-1,-2,1,-1,3.5,3.5,3.5,-1.9375,-1.9375,-1.9375,7.007539,2.875904,2.300008,3.239243,2.93558,5.60225,-0.1607121,-0.5600407,1.442883,0.2555116,-0.5634167,1.474453,0.03819385,0.229376,1.604092,-0.2003553,-0.5619056,1.432696,0.2917002,-0.5552657,1.484578,0.03440335,-0.2247331,1.569145,0.03515844,-0.5344786,1.516234,-0.1481727,-0.04457608,1.58454,-0.05336643,-0.5245882,1.486455,-0.1843738,-0.3001691,1.565562,0.267478,-0.2989454,1.576305,NA,NA,NotTracked,NotTracked,
0.980957,0.1821289,0.01855469,0.956543,-0.2426758,0.1157227,-1,-1,0,-1,1,1,-4,-2,-1,-1,-2,-1,-3,-2,-1,-1,11,11,11,4.9375,4.9375,4.9375,7.017143,2.871688,2.302699,3.241073,2.936141,5.603678,-0.1607544,-0.5598477,1.44243,0.2541851,-0.5629324,1.473291,0.03839576,0.2292991,1.603976,-0.2006661,-0.5586047,1.439052,0.2915554,-0.5549977,1.483804,0.03448501,-0.2247632,1.568951,0.03549849,-0.5344989,1.515867,-0.1481944,-0.04453012,1.584334,-0.05300461,-0.5246237,1.485785,-0.184411,-0.3001308,1.565155,0.2669687,-0.2991125,1.575525,NA,NA,NotTracked,NotTracked,
0.9614258,0.1240234,0.01757813,0.9584961,-0.2358398,0.1313477,-2,-2,0,0,1,3,0,1,-2,0,0,0,-1,-1,-6,-5,7.125,7.125,7.125,4.125,4.125,4.125,6.993129,2.866669,2.33052,3.249252,2.936006,5.600749,-0.1611281,-0.5600752,1.442886,0.251596,-0.5739791,1.469522,0.03877406,0.2292946,1.603779,-0.2008909,-0.5596198,1.437402,0.2891905,-0.5678297,1.475375,0.03460193,-0.2247736,1.56871,0.03575797,-0.5344929,1.515469,-0.1482232,-0.0444313,1.583989,-0.05272118,-0.5246384,1.48496,-0.1844846,-0.2998279,1.564602,0.2660992,-0.2993232,1.574248,NA,NA,NotTracked,NotTracked,
0.9443359,0.1513672,0.03564453,0.9648438,-0.234375,0.1459961,-1,1,-3,-2,0,0,-2,-2,-1,0,-1,-1,0,-1,-4,-2,20.1875,20.1875,20.1875,0.4375,0.4375,0.4375,7.000426,2.865046,2.334712,3.258001,2.934905,5.594017,-0.1611848,-0.5605605,1.443546,0.2520131,-0.573478,1.469173,0.03904053,0.2292328,1.60359,-0.2004033,-0.5610887,1.438246,0.2902865,-0.5706543,1.479143,0.03466329,-0.224805,1.568578,0.03583062,-0.5344918,1.515308,-0.1482297,-0.04437266,1.583919,-0.05266052,-0.5246447,1.484744,-0.1846325,-0.2999479,1.564417,0.2658876,-0.299257,1.57378,NA,NA,NotTracked,NotTracked,
0.9462891,0.1992188,0.09082031,0.965332,-0.2387695,0.1235352,0,-2,-2,-2,-1,-1,1,0,-1,0,-2,-2,1,-1,-1,1,-1.1875,-1.1875,-1.1875,2.375,2.375,2.375,7.013299,2.867952,2.338445,3.269444,2.936049,5.5843,-0.1606148,-0.5598099,1.443755,0.2524067,-0.5728834,1.467834,0.03959522,0.2292473,1.603298,-0.1973343,-0.5645254,1.431889,0.2893913,-0.5540539,1.472546,0.03471628,-0.2248547,1.568386,0.03596258,-0.534474,1.514995,-0.1482528,-0.04426794,1.583836,-0.05255841,-0.5246221,1.484271,-0.1848108,-0.2999672,1.564348,0.2657805,-0.2994765,1.572955,NA,NA,NotTracked,NotTracked,
0.9521484,0.1435547,0.105957,0.9560547,-0.2485352,0.1147461,0,-2,0,-1,-1,-1,0,-1,0,-1,0,-1,-2,-2,-4,0,-3.375,-3.375,-3.375,-0.625,-0.625,-0.625,6.972379,2.865803,2.367414,3.273674,2.937611,5.58014,-0.1605188,-0.5604997,1.442957,0.2525008,-0.5724687,1.466276,0.03986063,0.2291501,1.603151,-0.1982363,-0.5610826,1.436512,0.2896275,-0.5570723,1.474808,0.03471293,-0.224875,1.568306,0.03595138,-0.5344599,1.51482,-0.1482857,-0.04423743,1.583708,-0.05261134,-0.524552,1.483912,-0.1848404,-0.3000056,1.564234,0.2656448,-0.299573,1.572797,NA,NA,NotTracked,NotTracked,
0.9521484,0.1435547,0.105957,0.9560547,-0.2485352,0.1147461,0,-2,0,-1,-1,-1,0,-1,-1,-1,-2,-1,-1,-2,7,2,-3.375,-3.375,-3.375,-0.625,-0.625,-0.625,6.972379,2.865803,2.367414,3.273674,2.937611,5.58014,-0.1603662,-0.5603207,1.443428,0.2518585,-0.5690199,1.466053,0.04003834,0.2290897,1.602999,-0.1976958,-0.5495787,1.439864,0.2888056,-0.5495914,1.473273,0.03472874,-0.22488,1.568276,0.03600755,-0.5344686,1.514704,-0.1482841,-0.04415654,1.583647,-0.05256888,-0.5245544,1.483732,-0.1849597,-0.2999398,1.564222,0.2655837,-0.2995107,1.57268,NA,NA,NotTracked,NotTracked,
0.9628906,0.1777344,0.0625,0.9555664,-0.2382813,0.1201172,-1,0,0,-3,0,0,-1,-2,2,0,1,0,-2,-3,-6,-1,-8.4375,-8.4375,-8.4375,0.4375,0.4375,0.4375,6.94757,2.863882,2.383079,3.276153,2.938982,5.578703,-0.1602839,-0.5604586,1.443602,0.2512652,-0.5691177,1.466042,0.04024347,0.228982,1.603024,-0.1992406,-0.5578716,1.439215,0.2882934,-0.5702543,1.473333,0.03475802,-0.2248988,1.568202,0.03611039,-0.5344369,1.514429,-0.1482908,-0.04413122,1.583607,-0.05246694,-0.5244839,1.483197,-0.185089,-0.2997593,1.564273,0.265203,-0.299775,1.572475,NA,NA,NotTracked,NotTracked  ,
0.9619141,0.1782227,0.02880859,0.9545898,-0.2456055,0.1376953,-1,0,-1,1,0,0,0,-2,1,-2,-1,-2,-1,0,-1,0,-6.0625,-6.0625,-6.0625,-1.1875,-1.1875,-1.1875,6.946852,2.860144,2.37272,3.279884,2.939252,5.571942,-0.1606938,-0.5608258,1.444455,0.2491693,-0.5750483,1.464099,0.04063447,0.2287542,1.602775,-0.1988276,-0.5493513,1.441859,0.2859301,-0.5598807,1.469462,0.03478934,-0.2249572,1.56811,0.03621165,-0.5344112,1.514256,-0.1483757,-0.04399858,1.583592,-0.05237931,-0.5244488,1.48284,-0.1853732,-0.2994719,1.564523,0.2647041,-0.2997766,1.572283,NA,NA,NotTracked,NotTracked,
0.9594727,0.1977539,0.03808594,0.9619141,-0.234375,0.1362305,-2,-1,-1,-1,-1,-1,-1,-1,0,-2,-2,-1,-1,-1,0,0,-9,-9,-9,0.6875,0.6875,0.6875,6.960513,2.860097,2.350566,3.290547,2.941701,5.562324,-0.1603796,-0.5604582,1.444852,0.2492038,-0.5756235,1.464163,0.04074329,0.2286281,1.602695,-0.198713,-0.5562013,1.439763,0.2847424,-0.5636032,1.466251,0.03480196,-0.2249771,1.568099,0.03624889,-0.5344084,1.514234,-0.1483722,-0.04396025,1.583585,-0.05234308,-0.5244424,1.482761,-0.1854833,-0.2995736,1.564605,0.2643949,-0.2997481,1.57223,NA,NA,NotTracked,NotTracked,
0.9667969,0.1772461,0.05957031,0.956543,-0.2387695,0.128418,-1,0,-4,0,0,1,-1,-1,0,-1,1,-2,0,-2,-1,0,-11.4375,-11.4375,-11.4375,-1.0625,-1.0625,-1.0625,6.959542,2.86003,2.34517,3.292702,2.941583,5.558908,-0.1602392,-0.5610925,1.445466,0.2485918,-0.5761959,1.464079,0.04086966,0.2285441,1.60272,-0.1989666,-0.556946,1.439976,0.2861611,-0.5619587,1.470199,0.03480554,-0.2250129,1.568111,0.0362665,-0.5344279,1.514223,-0.1485119,-0.04394533,1.58369,-0.05234585,-0.5244647,1.482716,-0.1857317,-0.2992907,1.564915,0.2640172,-0.2997108,1.572169,NA,NA,NotTracked,NotTracked,
0.9604492,0.1835938,0.07373047,0.9628906,-0.2470703,0.1289063,-1,0,-1,-1,-1,-2,-2,-1,-2,-2,-3,-1,-1,-2,-2,-2,5.125,5.125,5.125,1,1,1,6.957526,2.858583,2.346784,3.29383,2.942197,5.558589,-0.1600976,-0.5602971,1.443934,0.2476582,-0.5777983,1.460383,0.04090294,0.2284798,1.602688,-0.1988631,-0.55753,1.439316,0.2838124,-0.5677629,1.460571,0.03481187,-0.2250301,1.5681,0.03627288,-0.5344083,1.514155,-0.1485833,-0.04390486,1.583714,-0.0523576,-0.5244256,1.482635,-0.1857112,-0.2993416,1.564883,0.2637013,-0.2997071,1.572125,NA,NA,NotTracked,NotTracked,
0.9580078,0.1806641,0.08349609,0.9663086,-0.2402344,0.1254883,0,-2,-2,-2,0,-1,-2,0,-1,-2,0,-1,-3,-1,-2,-1,-2.5,-2.5,-2.5,-0.25,-0.25,-0.25,6.945206,2.86322,2.358989,3.293275,2.942092,5.559201,-0.1602084,-0.5605946,1.443676,0.2474435,-0.5776619,1.459299,0.04091619,0.2284834,1.602692,-0.1989048,-0.5576034,1.43977,0.2840398,-0.5667804,1.462223,0.03482313,-0.2250598,1.568063,0.03630428,-0.5344146,1.514058,-0.1485907,-0.04390222,1.583709,-0.05234277,-0.5244362,1.482497,-0.1857399,-0.2993657,1.564885,0.2631953,-0.2995411,1.571858,NA,NA,NotTracked,NotTracked,
0.9428711,0.1796875,0.06689453,0.9609375,-0.2460938,0.1274414,0,0,-2,0,-1,-1,-1,0,-2,-1,-2,0,0,-1,-1,-1,0.8125,0.8125,0.8125,0.3125,0.3125,0.3125,6.935593,2.864574,2.368712,3.29264,2.941962,5.559587,-0.1602047,-0.5604438,1.444082,0.2469342,-0.5771207,1.458162,0.04095567,0.2284897,1.602646,-0.1986482,-0.5480825,1.44374,0.2854073,-0.5637791,1.466496,0.03487576,-0.2251129,1.568042,0.03643724,-0.5344225,1.513879,-0.148619,-0.04389906,1.583695,-0.05225178,-0.5244838,1.482301,-0.1857752,-0.2994296,1.564916,0.2627103,-0.2996517,1.571534,NA,NA,NotTracked,NotTracked,
0.953125,0.1787109,0.06103516,0.9599609,-0.2348633,0.1289063,-1,1,-2,-1,0,0,0,-1,-2,-2,0,-1,-1,-1,0,-4,1.75,1.75,1.75,-0.5,-0.5,-0.5,6.935718,2.865731,2.371107,3.29264,2.941962,5.559587,-0.1601968,-0.5609278,1.445378,0.2471851,-0.5777091,1.459319,0.04096901,0.2284495,1.602652,-0.1988841,-0.5551866,1.441889,0.2855978,-0.5642991,1.467195,0.03486089,-0.2251581,1.568099,0.03643112,-0.5344262,1.513886,-0.1486278,-0.04387373,1.58375,-0.05226503,-0.5244825,1.482311,-0.1858312,-0.2993674,1.565111,0.2624157,-0.2997726,1.571462,NA,NA,NotTracked,NotTracked,
0.9570313,0.1835938,0.05664063,0.9584961,-0.2426758,0.1347656,-4,-1,0,-1,1,0,0,0,0,-2,-3,-2,0,-1,-1,-1,1.5625,1.5625,1.5625,-1.0625,-1.0625,-1.0625,6.940124,2.865479,2.36769,3.293088,2.942296,5.558589,-0.1599222,-0.5610223,1.44461,0.2464757,-0.5775127,1.458256,0.04101028,0.2283088,1.602665,-0.1985417,-0.55576,1.440159,0.2855501,-0.564667,1.466924,0.03490079,-0.225175,1.568131,0.03646931,-0.5344215,1.513876,-0.1486496,-0.04385141,1.583804,-0.05223149,-0.5244789,1.482268,-0.1859076,-0.299397,1.5652,0.2622896,-0.299766,1.571275,NA,NA,NotTracked,NotTracked,
0.9609375,0.1782227,0.06347656,0.9614258,-0.2392578,0.128418,-1,-1,1,-1,-1,-2,0,0,-1,-2,-1,-1,-2,0,-1,-2,-0.4375,-0.4375,-0.4375,0,0,0,6.939773,2.866861,2.367887,3.292874,2.942112,5.55808,-0.1600078,-0.5609522,1.445755,0.2467736,-0.573654,1.457425,0.04108576,0.228129,1.602805,-0.1993089,-0.5519079,1.445841,0.2853729,-0.5621492,1.46684,0.03490613,-0.2252533,1.568184,0.03652242,-0.5344306,1.513871,-0.1486643,-0.04384338,1.583845,-0.05221045,-0.5244975,1.482229,-0.1861253,-0.2994426,1.565402,0.2620443,-0.2997317,1.571152,NA,NA,NotTracked,NotTracked,
0.9526367,0.1948242,0.07714844,0.9584961,-0.2353516,0.1328125,-1,-1,-2,-1,-1,1,-1,-1,-2,-1,0,0,0,1,0,-2,-1.25,-1.25,-1.25,-0.5,-0.5,-0.5,6.937381,2.868977,2.370081,3.292874,2.942112,5.55808,-0.1601723,-0.5612377,1.446007,0.2471766,-0.5712865,1.458715,0.04114156,0.2279991,1.602835,-0.198751,-0.558873,1.441976,0.2848398,-0.5637062,1.464406,0.03486664,-0.2253027,1.568279,0.03649142,-0.5344518,1.513896,-0.148717,-0.04382946,1.583902,-0.05224393,-0.5245183,1.482257,-0.1861511,-0.2994725,1.565418,0.2618139,-0.2998328,1.571116,NA,NA,NotTracked,NotTracked,
0.9516602,0.1865234,0.08642578,0.9545898,-0.2456055,0.1318359,0,-2,-1,-2,0,-1,-2,-2,0,-3,-2,-2,-2,-2,-1,0,0.1875,0.1875,0.1875,-0.6875,-0.6875,-0.6875,6.93163,2.869756,2.375375,3.292874,2.942112,5.55808,-0.1604922,-0.5608897,1.445333,0.2455797,-0.576705,1.455328,0.04121985,0.227752,1.602787,-0.1992181,-0.5540749,1.442315,0.283935,-0.5732778,1.461042,0.03481147,-0.2253771,1.568341,0.03650244,-0.5344617,1.513868,-0.1488263,-0.04377935,1.583971,-0.05224937,-0.5245391,1.482202,-0.1864738,-0.2990494,1.565679,0.2616017,-0.2998425,1.570973,NA,NA,NotTracked,NotTracked,
0.9526367,0.1938477,0.08105469,0.9589844,-0.2456055,0.1459961,-1,0,-1,0,0,-2,-1,-1,-3,0,-2,-1,-2,-1,-2,-2,1.0625,1.0625,1.0625,-0.625,-0.625,-0.625,6.924826,2.870934,2.384135,3.293535,2.942628,5.55759,-0.1603218,-0.5611469,1.445926,0.2454154,-0.5757258,1.455088,0.04128068,0.2276951,1.602833,-0.1998941,-0.5581855,1.447094,0.2838489,-0.5581583,1.464296,0.03479621,-0.2254256,1.568376,0.03650516,-0.5344661,1.51387,-0.1488812,-0.04377062,1.584021,-0.05224805,-0.5245512,1.482199,-0.186529,-0.2992252,1.565695,0.2615322,-0.2998644,1.57096,NA,NA,NotTracked,NotTracked,
0.9550781,0.1899414,0.07958984,0.9560547,-0.2470703,0.1323242,0,0,-1,-1,-1,-1,0,0,-1,1,-2,-1,-1,-1,1,-1,1.125,1.125,1.125,-1.0625,-1.0625,-1.0625,6.922396,2.871112,2.387265,3.292848,2.94286,5.557649,-0.1604196,-0.5611168,1.44576,0.2445353,-0.5763758,1.45522,0.04133508,0.2275743,1.602887,-0.1995123,-0.5539225,1.443355,0.2844671,-0.5641088,1.464299,0.03476467,-0.2254672,1.568417,0.03650793,-0.5344744,1.513863,-0.1489199,-0.04375554,1.584064,-0.05225279,-0.5245603,1.482161,-0.1866587,-0.2991381,1.565767,0.2614354,-0.2998912,1.570897,NA,NA,NotTracked,NotTracked,
0.9511719,0.1860352,0.07373047,0.972168,-0.2353516,0.128418,-1,-2,-1,0,-1,0,0,-1,-1,-1,-1,-1,-1,-1,-1,-1,0.5,0.5,0.5,-0.1875,-0.1875,-0.1875,6.919421,2.871424,2.392358,3.280017,2.941127,5.569128,-0.160856,-0.5607218,1.444227,0.2435724,-0.575745,1.454011,0.04149883,0.2271368,1.603046,-0.1959633,-0.5732222,1.429909,0.2815059,-0.561981,1.456313,0.03468159,-0.2255683,1.568484,0.03647995,-0.534484,1.51386,-0.1490731,-0.04371501,1.584195,-0.05230471,-0.524562,1.482069,-0.186917,-0.2991897,1.565843,0.2611904,-0.2998384,1.57074,NA,NA,NotTracked,NotTracked,
0.9614258,0.1787109,0.07763672,0.9633789,-0.2285156,0.1289063,0,1,-1,-1,-5,-3,0,-1,-2,-2,-1,-1,1,-2,0,-2,-0.5,-0.5,-0.5,0,0,0,6.91225,2.870591,2.399281,3.280178,2.940518,5.568844,-0.1607569,-0.5603731,1.443952,0.2431994,-0.5750927,1.452809,0.04150175,0.2270658,1.60294,-0.1987417,-0.552551,1.439758,0.2809001,-0.5714769,1.454846,0.03458981,-0.2255842,1.568517,0.03645716,-0.5344799,1.513833,-0.1492401,-0.04373334,1.584258,-0.05235997,-0.5245627,1.481966,-0.1869534,-0.2991974,1.565846,0.2610601,-0.2997984,1.570616,NA,NA,NotTracked,NotTracked,
0.9472656,0.1806641,0.06347656,0.9580078,-0.2338867,0.140625,-1,-1,-1,-2,0,2,-1,-2,0,0,-2,0,-1,0,1,-2,0.3125,0.3125,0.3125,-2.125,-2.125,-2.125,6.91087,2.868712,2.40054,3.28172,2.94131,5.566446,-0.1610566,-0.5614448,1.44587,0.2431282,-0.5757368,1.455109,0.04155898,0.226997,1.602924,-0.198629,-0.5618032,1.438915,0.28212,-0.5782579,1.4585,0.03453034,-0.225665,1.568676,0.03634398,-0.5344871,1.513882,-0.1493552,-0.04374032,1.584331,-0.05251297,-0.5245371,1.481982,-0.1873733,-0.2996101,1.565859,0.2606181,-0.2999901,1.5703,NA,NA,NotTracked,NotTracked,
0.9516602,0.1938477,0.06835938,0.9550781,-0.2407227,0.1430664,-2,0,-2,-1,0,-1,-1,-1,-1,-2,0,-2,-2,-1,-1,0,-1.25,-1.25,-1.25,-0.75,-0.75,-0.75,6.909754,2.868029,2.400988,3.283122,2.941302,5.564037,-0.1612032,-0.5607908,1.44577,0.2431391,-0.5753311,1.4555,0.04163327,0.2268159,1.602924,-0.198509,-0.5505466,1.440525,0.2812755,-0.5797892,1.459,0.03448054,-0.2257087,1.568755,0.03631919,-0.5345052,1.513926,-0.1493927,-0.04371681,1.584361,-0.0525348,-0.5245446,1.481987,-0.1874501,-0.2996452,1.565863,0.2605612,-0.300061,1.570314,NA,NA,NotTracked,NotTracked,
0.9614258,0.199707,0.07714844,0.9550781,-0.2421875,0.1298828,-2,-1,-2,-2,0,0,-3,-1,-2,-3,2,-1,-1,-2,-1,-2,1,1,1,0.5,0.5,0.5,6.911686,2.862962,2.398744,3.296538,2.942786,5.552296,-0.1611979,-0.5609779,1.444718,0.2426602,-0.575702,1.454106,0.04169768,0.2267582,1.602895,-0.1980289,-0.5616752,1.437555,0.2774026,-0.5911075,1.4476,0.03441414,-0.2257962,1.568757,0.03630918,-0.5345418,1.513866,-0.1495194,-0.04378946,1.584317,-0.05258119,-0.5245785,1.481786,-0.1877564,-0.2997214,1.565809,0.2602686,-0.3000383,1.570127,NA,NA,NotTracked,NotTracked,
0.949707,0.2006836,0.08251953,0.9638672,-0.25,0.1289063,-1,-1,0,-1,-2,0,1,-1,0,1,3,-1,0,-1,-3,-2,-1.4375,-1.4375,-1.4375,-5.375,-5.375,-5.375,6.914341,2.860742,2.395017,3.29528,2.944066,5.547431,-0.1615557,-0.560624,1.444927,0.242966,-0.5756932,1.455219,0.0417073,0.2266798,1.60283,-0.1985119,-0.5596868,1.438437,0.2790056,-0.5670511,1.453947,0.03439341,-0.2258267,1.568771,0.03628737,-0.5345449,1.513866,-0.1495478,-0.04377228,1.584316,-0.05261315,-0.5245875,1.481775,-0.1878176,-0.2997589,1.565814,0.2600922,-0.3000461,1.570099,NA,NA,NotTracked,NotTracked,
0.9541016,0.1933594,0.08154297,0.9584961,-0.2470703,0.128418,-1,-1,1,0,-2,-2,-2,-1,1,1,-1,1,-1,-1,1,-1,-0.3125,-0.3125,-0.3125,0.0625,0.0625,0.0625,6.911705,2.860308,2.396817,3.294251,2.945858,5.546991,-0.1610874,-0.5608439,1.4459,0.2430475,-0.5760666,1.455661,0.04171715,0.2264944,1.602807,-0.1982351,-0.5594751,1.438672,0.2779104,-0.5882685,1.450286,0.03434236,-0.2258799,1.56884,0.03627643,-0.5345528,1.513893,-0.1496144,-0.04376253,1.584353,-0.05261831,-0.5245891,1.481777,-0.1879747,-0.2996841,1.565822,0.2600062,-0.3000408,1.570122,NA,NA,NotTracked,NotTracked,
0.9467773,0.2070313,0.07324219,0.9575195,-0.2392578,0.1425781,0,-3,-2,0,0,-2,0,0,-2,0,-2,-1,-2,-2,-2,-1,-0.5,-0.5,-0.5,-1.0625,-1.0625,-1.0625,6.911494,2.860371,2.397176,3.291625,2.94744,5.547425,-0.1625016,-0.558052,1.446838,0.2428318,-0.5753733,1.455632,0.04174712,0.226382,1.602744,-0.2003864,-0.5568227,1.440435,0.2784306,-0.5893788,1.453,0.03426346,-0.2259864,1.568917,0.03624094,-0.5345812,1.513907,-0.1498415,-0.04373129,1.584472,-0.0526822,-0.5246305,1.481784,-0.1884319,-0.2996983,1.565914,0.2597583,-0.3001367,1.57002,NA,NA,NotTracked,NotTracked,
0.9511719,0.1762695,0.07666016,0.953125,-0.2285156,0.1420898,-1,0,0,-1,-2,0,0,0,-2,-1,-1,0,-3,-1,-1,-1,2.5625,2.5625,2.5625,2.125,2.125,2.125,6.909276,2.85981,2.398262,3.298349,2.948832,5.543642,-0.1629557,-0.5574505,1.444805,0.2425473,-0.5750306,1.453313,0.04162901,0.2262699,1.602527,-0.2004362,-0.5584153,1.438274,0.2769259,-0.5920846,1.447625,0.0341814,-0.2260157,1.568928,0.03617633,-0.5345886,1.513844,-0.1501732,-0.04362396,1.584516,-0.05274642,-0.5246423,1.48164,-0.1887272,-0.2996904,1.56579,0.2594841,-0.300133,1.569741,NA,NA,NotTracked,NotTracked,
0.9477539,0.1884766,0.07226563,0.9599609,-0.230957,0.137207,-1,-2,-2,-1,0,0,-1,-1,-2,1,-2,-2,-2,-1,-1,-2,4.4375,4.4375,4.4375,0.75,0.75,0.75,6.913036,2.859951,2.397192,3.299367,2.948523,5.542473,-0.16337,-0.5577503,1.446005,0.2429014,-0.5753789,1.454542,0.04160915,0.2261959,1.602542,-0.2008287,-0.557192,1.439003,0.2786032,-0.5740622,1.450643,0.0341651,-0.226026,1.568933,0.03616959,-0.5345821,1.513843,-0.1502692,-0.04355922,1.584553,-0.05274954,-0.5246407,1.481635,-0.1890447,-0.2993313,1.565806,0.2593484,-0.3000799,1.569682,NA,NA,NotTracked,NotTracked,
0.9555664,0.1855469,0.08300781,0.9570313,-0.2368164,0.1333008,2,-1,0,0,-1,-1,0,-1,-1,0,-1,-2,-2,0,-1,-2,-0.5625,-0.5625,-0.5625,2.875,2.875,2.875,6.914683,2.859725,2.39724,3.309464,2.947689,5.536506,-0.1632575,-0.5574855,1.445817,0.2425696,-0.5745708,1.453344,0.04150956,0.2260741,1.60252,-0.2005488,-0.5569797,1.440168,0.2753812,-0.5912244,1.4431,0.03401328,-0.2261291,1.569006,0.0361178,-0.5345915,1.513832,-0.1504976,-0.04356731,1.584573,-0.05281338,-0.5246505,1.481603,-0.1892605,-0.2993122,1.565715,0.2591751,-0.3000895,1.569535,NA,NA,NotTracked,NotTracked,
0.953125,0.1879883,0.06591797,0.9560547,-0.2495117,0.1240234,0,1,-1,0,0,-2,-1,0,-1,0,-2,-2,-2,-2,-3,-1,1,1,1,0.875,0.875,0.875,6.917809,2.857627,2.39558,3.311748,2.94663,5.534914,-0.163287,-0.5576814,1.445832,0.2431028,-0.5725657,1.454292,0.04145292,0.2260002,1.602495,-0.2003252,-0.5568135,1.438293,0.2784894,-0.5657935,1.45,0.03396812,-0.2261469,1.569031,0.03610898,-0.5345886,1.513833,-0.1506542,-0.04354696,1.584612,-0.05282895,-0.5246599,1.481618,-0.1892906,-0.2993893,1.565724,0.2590043,-0.3001094,1.569484,NA,NA,NotTracked,NotTracked,
0.9482422,0.1889648,0.06591797,0.9594727,-0.2509766,0.1279297,-1,-2,-1,0,0,-1,-3,-1,1,-2,-1,-1,-1,-1,0,0,1.1875,1.1875,1.1875,1.125,1.125,1.125,6.919021,2.857112,2.394961,3.311785,2.947414,5.535725,-0.1633403,-0.5582335,1.446981,0.2431239,-0.5750928,1.454095,0.04128205,0.2259702,1.60247,-0.2013232,-0.5597731,1.441409,0.2779317,-0.5883147,1.4504,0.03378351,-0.2262155,1.5691,0.03598313,-0.5346218,1.513873,-0.1507659,-0.04352331,1.584656,-0.05296487,-0.5247093,1.481666,-0.1894133,-0.2993386,1.565714,0.2588233,-0.3002362,1.569349,NA,NA,NotTracked,NotTracked,
0.9521484,0.1953125,0.07128906,0.9628906,-0.2382813,0.1367188,-1,-2,-1,-1,-2,-1,-1,1,-2,-2,-2,-1,0,-2,-1,-1,0.75,0.75,0.75,0.125,0.125,0.125,6.921922,2.856522,2.392914,3.311785,2.947414,5.535725,-0.1634751,-0.5579448,1.445847,0.2427512,-0.5748262,1.453467,0.04117245,0.2258672,1.602347,-0.2011957,-0.5571352,1.441045,0.2800756,-0.5754112,1.454469,0.03375323,-0.2262439,1.569089,0.03594072,-0.5346366,1.513837,-0.1508947,-0.04348775,1.584637,-0.05299608,-0.5247218,1.481639,-0.1896038,-0.2991474,1.56566,0.2587594,-0.300308,1.569267,NA,NA,NotTracked,NotTracked,
0.9501953,0.1904297,0.07617188,0.9619141,-0.234375,0.1450195,-1,1,-1,0,-1,0,1,-1,-1,0,1,-1,-1,-2,0,-2,-0.375,-0.375,-0.375,0.375,0.375,0.375,6.921613,2.856385,2.393232,3.311678,2.947009,5.535603,-0.1635996,-0.5583404,1.447384,0.2428135,-0.5751896,1.454824,0.04109801,0.225822,1.602309,-0.2012236,-0.5586624,1.440888,0.2778628,-0.5879239,1.450004,0.03364006,-0.2262597,1.569174,0.03585839,-0.5346789,1.513878,-0.1509499,-0.04354325,1.584662,-0.05309354,-0.5247797,1.481693,-0.1896812,-0.2992526,1.565674,0.2587108,-0.3002928,1.569204,NA,NA,NotTracked,NotTracked,
0.9580078,0.184082,0.06835938,0.9584961,-0.2353516,0.1352539,0,0,-1,1,0,-1,0,0,0,-1,-1,0,-1,-2,-1,-1,0.0625,0.0625,0.0625,0.6875,0.6875,0.6875,6.919817,2.855206,2.394192,3.314096,2.94712,5.533949,-0.1638994,-0.5578395,1.447217,0.2428871,-0.5756253,1.454418,0.04091945,0.2258334,1.602181,-0.2012914,-0.5597286,1.439941,0.2783608,-0.5931573,1.4526,0.03357331,-0.2262768,1.569175,0.03581141,-0.5346812,1.513885,-0.1512415,-0.04356853,1.584668,-0.0531268,-0.5247873,1.481714,-0.1898889,-0.2993245,1.565697,0.2585604,-0.3001812,1.56916,NA,NA,NotTracked,NotTracked,
0.9516602,0.1914063,0.06542969,0.9570313,-0.2363281,0.1352539,0,-1,-1,-2,0,-1,1,-2,0,-2,0,-1,-1,-2,0,-2,0.1875,0.1875,0.1875,-0.0625,-0.0625,-0.0625,6.920174,2.855439,2.394428,3.314096,2.94712,5.533949,-0.1637962,-0.5578051,1.446661,0.2430017,-0.5752315,1.454627,0.04086534,0.2258783,1.602152,-0.2017613,-0.5590794,1.442057,0.2787617,-0.568074,1.45175,0.03354818,-0.2262901,1.569169,0.03581019,-0.5346822,1.513887,-0.1513814,-0.04356439,1.584648,-0.05312781,-0.5247906,1.481707,-0.1898996,-0.2997465,1.565718,0.2585002,-0.3001314,1.569141,NA,NA,NotTracked,NotTracked,
0.9624023,0.1826172,0.06591797,0.9589844,-0.2416992,0.1401367,-2,-2,-2,-1,0,-1,-2,1,-2,-2,0,-1,-1,0,-2,-1,-1.5,-1.5,-1.5,0.25,0.25,0.25,6.92094,2.852111,2.390883,3.314096,2.94712,5.533949,-0.1637755,-0.5577704,1.446336,0.2431889,-0.5719225,1.454093,0.04064034,0.225753,1.601977,-0.2030548,-0.5583409,1.443938,0.2812812,-0.564527,1.462364,0.03343919,-0.2262952,1.569263,0.035761,-0.5346922,1.513944,-0.1515035,-0.04355163,1.584655,-0.05316252,-0.5248125,1.481724,-0.190013,-0.2996105,1.565855,0.2582653,-0.3001283,1.569066,NA,NA,NotTracked,NotTracked,
0.9560547,0.1860352,0.07128906,0.9575195,-0.246582,0.1401367,-2,0,0,-1,0,-1,1,0,-1,0,-1,-3,-2,-1,0,-1,-0.875,-0.875,-0.875,0.25,0.25,0.25,6.920629,2.851975,2.391203,3.316131,2.945738,5.531765,-0.1636274,-0.5577439,1.445585,0.242195,-0.5747972,1.452602,0.04057388,0.225752,1.60184,-0.2024591,-0.5571762,1.443841,0.2775272,-0.5874572,1.448286,0.03340197,-0.2263004,1.569167,0.03576614,-0.5346819,1.513903,-0.151659,-0.04353888,1.584576,-0.0531576,-0.5248206,1.481663,-0.1900994,-0.2995582,1.565814,0.2580609,-0.300071,1.568792,NA,NA,NotTracked,NotTracked,
0.9526367,0.190918,0.06787109,0.9638672,-0.2407227,0.1386719,1,0,0,0,-2,0,-2,0,-4,-2,-3,-1,-1,-2,0,-2,-0.6875,-0.6875,-0.6875,1.0625,1.0625,1.0625,6.921531,2.851818,2.390311,3.320575,2.94575,5.528512,-0.1638384,-0.5583457,1.447331,0.242717,-0.5755973,1.454996,0.04044912,0.2256788,1.601794,-0.2021078,-0.5574816,1.442604,0.2782164,-0.5860023,1.450913,0.0333763,-0.2263266,1.569166,0.0357693,-0.5346835,1.513909,-0.1519123,-0.04356689,1.5846,-0.05315615,-0.524826,1.48166,-0.190258,-0.2995,1.565943,0.2579535,-0.3000192,1.568785,NA,NA,NotTracked,NotTracked,
0.9614258,0.1943359,0.06982422,0.9555664,-0.2416992,0.1386719,0,0,-2,0,-1,0,0,-2,0,0,0,-1,0,-1,-1,1,-1.25,-1.25,-1.25,1,1,1,6.922044,2.850852,2.389251,3.322068,2.945928,5.527428,-0.1634634,-0.5581616,1.447047,0.2429151,-0.5752335,1.455733,0.04036735,0.2256895,1.601735,-0.2012607,-0.5568677,1.441093,0.278717,-0.5916158,1.454394,0.03328405,-0.2263896,1.569152,0.03573985,-0.5347044,1.513911,-0.1520925,-0.04355843,1.584639,-0.05319009,-0.5248505,1.481639,-0.1902969,-0.2995134,1.565942,0.2578612,-0.3000046,1.568781,NA,NA,NotTracked,NotTracked,
0.9511719,0.1918945,0.06787109,0.9589844,-0.2338867,0.1396484,0,0,1,1,-1,-3,-1,0,-1,-1,-2,-2,-3,-1,0,-1,-1.125,-1.125,-1.125,0.6875,0.6875,0.6875,6.921429,2.850163,2.388484,3.322701,2.946057,5.527043,-0.1629871,-0.5582474,1.447072,0.2427308,-0.5752332,1.455006,0.04024861,0.2257491,1.601552,-0.2002414,-0.5467744,1.445394,0.2807827,-0.5686167,1.460778,0.03320378,-0.2264013,1.569143,0.03565468,-0.5347251,1.513919,-0.1521828,-0.04359245,1.584624,-0.05327063,-0.5248882,1.481641,-0.1903409,-0.2995037,1.565975,0.2578696,-0.3000078,1.568799,NA,NA,NotTracked,NotTracked,
0.9555664,0.1918945,0.06835938,0.9594727,-0.2373047,0.1352539,-1,-2,-1,0,0,-1,-1,0,-3,-1,-3,-24,-3,0,-1,-2,-0.5625,-0.5625,-0.5625,0.625,0.625,0.625,6.921429,2.850163,2.388484,3.322166,2.945951,5.527637,-0.1638235,-0.5582929,1.447051,0.2424988,-0.5755693,1.45513,0.03995363,0.2256157,1.601257,-0.2013226,-0.5557966,1.442587,0.2781034,-0.5616448,1.4535,0.03308381,-0.2264489,1.569072,0.03562916,-0.5347364,1.513912,-0.1524467,-0.04367378,1.584474,-0.05330074,-0.5249059,1.481631,-0.190411,-0.299495,1.565982,0.2578289,-0.3000704,1.568832,NA,NA,NotTracked,NotTracked,
0.956543,0.1870117,0.07519531,0.9545898,-0.2265625,0.128418,-1,0,0,-3,-1,-1,-2,0,-2,-1,0,-6,1,-1,-2,0,-0.1875,-0.1875,-0.1875,3.375,3.375,3.375,6.922316,2.849404,2.387599,3.316129,2.943382,5.536421,-0.1631574,-0.5583964,1.446829,0.2427058,-0.5750457,1.455295,0.03979662,0.2255771,1.60111,-0.2035412,-0.5624624,1.443902,0.2782086,-0.568714,1.451784,0.03305331,-0.2264751,1.569034,0.03559448,-0.5347599,1.513887,-0.152544,-0.04371856,1.584353,-0.05333769,-0.5249501,1.481613,-0.1904463,-0.2994945,1.565981,0.2577662,-0.3000653,1.568827,NA,NA,NotTracked,NotTracked,
0.9580078,0.1918945,0.06640625,0.9731445,-0.2397461,0.125,-1,-3,-3,-2,-1,-1,0,1,0,-1,-1,1,2,-1,-1,-1,0.3125,0.3125,0.3125,-8.25,-8.25,-8.25,6.922005,2.849267,2.387918,3.274988,2.936548,5.576051,-0.1638877,-0.5580911,1.448127,0.2431671,-0.5753222,1.454948,0.03965941,0.225514,1.600936,-0.2044284,-0.5659543,1.447454,0.278116,-0.5867394,1.451375,0.03295527,-0.2264974,1.569003,0.03556367,-0.5347492,1.513861,-0.1526336,-0.04373677,1.58435,-0.0533745,-0.5249416,1.481575,-0.1904554,-0.2995149,1.56598,0.2577373,-0.3000496,1.568899,NA,NA,NotTracked,NotTracked,
0.9560547,0.1889648,0.06933594,0.9677734,-0.2612305,0.1357422,0,-2,0,0,-1,0,-1,-2,0,-1,1,-2,-1,-1,-1,-1,1,1,1,-6.25,-6.25,-6.25,6.923883,2.849027,2.386616,3.259531,2.938287,5.58498,-0.1632288,-0.5585781,1.447287,0.2423248,-0.5753567,1.455377,0.03938356,0.2256168,1.600583,-0.2023175,-0.5628901,1.444002,0.2782549,-0.5807483,1.451935,0.03286503,-0.2265059,1.56891,0.03549961,-0.5347769,1.513774,-0.152876,-0.04381233,1.584355,-0.05344175,-0.5249857,1.481474,-0.1905405,-0.2995871,1.566014,0.2576487,-0.299985,1.568886,NA,NA,NotTracked,NotTracked,
0.9550781,0.1889648,0.07324219,0.9536133,-0.25,0.137207,-2,1,0,-2,0,0,-2,1,-1,-2,-1,1,0,-2,0,-1,0.6875,0.6875,0.6875,-2.875,-2.875,-2.875,6.923573,2.848891,2.386934,3.255931,2.942278,5.584748,-0.1633167,-0.5584437,1.447581,0.2424316,-0.5753583,1.455402,0.03917266,0.2255107,1.600472,-0.2019737,-0.559356,1.443436,0.2785949,-0.572476,1.452806,0.03277339,-0.2265253,1.56896,0.03546228,-0.53478,1.513832,-0.1529348,-0.04383759,1.584353,-0.0534737,-0.5249962,1.4815,-0.190644,-0.2995019,1.566062,0.2576025,-0.2999719,1.56896,NA,NA,NotTracked,NotTracked,
0.9570313,0.1889648,0.06982422,0.9492188,-0.2348633,0.1464844,-2,-1,-1,-2,-2,-1,1,-3,0,0,-1,0,-1,0,-1,-1,0.8125,0.8125,0.8125,-0.1875,-0.1875,-0.1875,6.924465,2.84813,2.386043,3.260225,2.945442,5.579713,-0.1641029,-0.5583571,1.447205,0.2427188,-0.5754567,1.455339,0.03907581,0.2255581,1.600425,-0.2021304,-0.55936,1.443683,0.2783425,-0.5805851,1.45235,0.03264385,-0.2265253,1.568931,0.03544052,-0.5347815,1.513814,-0.1530889,-0.04383923,1.584403,-0.05349767,-0.5250027,1.481473,-0.1906665,-0.299488,1.566085,0.257493,-0.2999814,1.568993,NA,NA,NotTracked,NotTracked,
0.9506836,0.1801758,0.05712891,0.9619141,-0.2265625,0.1362305,-2,-1,0,11,3,1,2,1,-1,-1,-2,1,1,-3,1,0,0.5,0.5,0.5,2.4375,2.4375,2.4375,6.930082,2.847961,2.380588,3.277373,2.94679,5.565911,-0.1641987,-0.5582454,1.447956,0.2424501,-0.5760332,1.455745,0.03894147,0.2255631,1.600445,-0.2030331,-0.5591195,1.445727,0.2783062,-0.5910725,1.452333,0.03256788,-0.2265699,1.569034,0.03539518,-0.5348039,1.513937,-0.15343,-0.04379106,1.584825,-0.05354616,-0.5250616,1.481644,-0.1909431,-0.2995507,1.566308,0.2574424,-0.2999189,1.56908,NA,NA,NotTracked,NotTracked,
0.956543,0.1943359,0.06542969,0.9609375,-0.2255859,0.1298828,-1,-3,-1,-7,-4,-2,-2,-2,-2,-1,-2,-12,-5,-2,-1,-1,8.625,8.625,8.625,1.8125,1.8125,1.8125,6.978097,2.847106,2.339239,3.282941,2.946892,5.56162,-0.1636096,-0.5574536,1.444811,0.2421527,-0.5753214,1.453393,0.03879179,0.225614,1.600236,-0.2042517,-0.5512448,1.446381,0.2778843,-0.5935953,1.446,0.03246229,-0.2265724,1.568916,0.03536923,-0.5347987,1.513914,-0.1536626,-0.04384153,1.584716,-0.05357205,-0.5250701,1.481613,-0.1911274,-0.2991867,1.566276,0.2573156,-0.2997525,1.568989,NA,NA,NotTracked,NotTracked,
0.9643555,0.2050781,0.06494141,0.9624023,-0.2426758,0.1245117,-1,0,-3,-1,-1,0,1,0,1,1,-1,-6,-1,0,0,0,1.75,1.75,1.75,0.3125,0.3125,0.3125,6.982056,2.847733,2.336256,3.29034,2.94556,5.554744,-0.1638491,-0.5580308,1.445839,0.2419444,-0.574843,1.453746,0.03856369,0.2256337,1.599986,-0.203412,-0.5618947,1.445688,0.2782083,-0.5895515,1.451833,0.03235665,-0.2265764,1.568864,0.03532171,-0.5348247,1.513882,-0.153781,-0.04385681,1.584649,-0.05363546,-0.5251349,1.481526,-0.1912244,-0.2991441,1.566211,0.2571678,-0.2997349,1.568919,NA,NA,NotTracked,NotTracked,
0.9550781,0.1723633,0.06542969,0.9633789,-0.2460938,0.1201172,-1,-1,1,-2,0,-1,-1,-2,-1,-1,-1,-4,0,-1,-1,-1,-2.0625,-2.0625,-2.0625,0.375,0.375,0.375,6.968173,2.846246,2.34521,3.290445,2.945967,5.554865,-0.1640016,-0.5570285,1.44467,0.2420152,-0.5748028,1.452896,0.03849503,0.2256511,1.599851,-0.2029108,-0.5615829,1.439477,0.2783991,-0.5932384,1.4528,0.03227912,-0.2265728,1.568743,0.03531019,-0.5348178,1.513758,-0.1539353,-0.04386481,1.584571,-0.05365593,-0.5251725,1.481325,-0.1913461,-0.2992057,1.565975,0.2570512,-0.2997466,1.568791,NA,NA,NotTracked,NotTracked,
0.9545898,0.1918945,0.05615234,0.956543,-0.2373047,0.1367188,-1,-4,-1,-2,-1,0,1,-1,-1,-1,3,3,-1,-1,-2,-2,-2.6875,-2.6875,-2.6875,0,0,0,6.960392,2.845999,2.351318,3.290445,2.945967,5.554865,-0.1639508,-0.557915,1.445862,0.2419174,-0.5753563,1.454057,0.03829267,0.2255385,1.599617,-0.2028301,-0.5611945,1.443563,0.2777705,-0.5938525,1.4495,0.03221442,-0.2266002,1.568693,0.035322,-0.5348279,1.513685,-0.1541752,-0.04396037,1.584439,-0.05366449,-0.5252122,1.481214,-0.1914168,-0.2990567,1.566027,0.2569222,-0.2998038,1.568735,NA,NA,NotTracked,NotTracked,
0.9555664,0.1870117,0.06054688,0.9624023,-0.222168,0.1386719,0,-1,-2,0,0,-1,-2,-1,-1,0,-1,-1,0,0,-1,-1,-2.75,-2.75,-2.75,-1.1875,-1.1875,-1.1875,6.951746,2.844471,2.357016,3.294274,2.945305,5.55025,-0.1641457,-0.5576692,1.446002,0.2415454,-0.5752104,1.454814,0.03821108,0.2255202,1.599592,-0.2036488,-0.5567032,1.443588,0.2787239,-0.5589725,1.4578,0.03218015,-0.2266276,1.568701,0.0352957,-0.5348453,1.513698,-0.1542651,-0.04397637,1.584432,-0.05370005,-0.5252414,1.481227,-0.1914619,-0.2990625,1.565991,0.256877,-0.2998077,1.568766,NA,NA,NotTracked,NotTracked,
0.9516602,0.1855469,0.06787109,0.9584961,-0.2607422,0.1430664,0,0,-2,-2,-1,0,0,0,-2,0,-1,-2,-2,-2,-4,-2,-1.6875,-1.6875,-1.6875,-6,-6,-6,6.94297,2.84382,2.363131,3.296144,2.947043,5.537745,-0.1642486,-0.558677,1.446753,0.2418817,-0.5756565,1.455062,0.03818733,0.2254145,1.59961,-0.2031391,-0.5603919,1.444538,0.2794816,-0.5647021,1.458847,0.0321159,-0.2266655,1.568734,0.0352595,-0.5348861,1.513723,-0.1543133,-0.04399071,1.584427,-0.05373246,-0.5252824,1.481232,-0.1915654,-0.2990472,1.565989,0.2568559,-0.2998169,1.568789,NA,NA,NotTracked,NotTracked,
