ALX,ALY,ALZ,ARX,ARY,ARZ,EMG0L,EMG1L,EMG2L,EMG3L,EMG4L,EMG5L,EMG6L,EMG7L,EMG0R,EMG1R,EMG2R,EMG3R,EMG4R,EMG5R,EMG6R,EMG7R,GLX,GLY,GLZ,GRX,GRY,GRZ,ORL,OPL,OYL,ORR,OPR,OYR,LHNX,LHNY,LHNZ,RHNX,RHNY,RHNZ,HX,HY,HZ,LTX,LTY,LTZ,RTX,RTY,RTZ,SpineMidX,SpineMidY,SpineMidZ,SpineBaseX,SpineBaseY,SpineBaseZ,ShoulderLeftX,ShoulderLeftY,ShoulderLeftZ,ShoulderRightX,ShoulderRightY,ShoulderRightZ,ElbowLeftX,ElbowLeftY,ElbowLeftZ,ElbowRightX,ElbowRightY,ElbowRightZ,Myo_Pose_left,Myo_Pose_Right,Kinect_pose_left,Kinect_pose_right
-0.6376953,0.3369141,0.2358398,0.2089844,-1.012695,0.5546875,9,3,14,47,-36,8,-26,-3,0,1,-2,-25,-26,-10,0,-1,48.375,48.375,48.375,10.125,10.125,10.125,7.215791,6.204892,3.395062,3.149725,4.800014,5.0924,-0.0121751,-0.2253161,1.217246,0.05888265,0.05939494,1.345907,0.01566807,0.2272268,1.601405,0.01883827,-0.1966601,1.240436,0.02275019,0.03673513,1.31712,0.02441806,-0.224912,1.557497,0.02883508,-0.5300099,1.504693,-0.1516858,-0.03933,1.570637,-0.06044111,-0.5215816,1.478359,-0.2009705,-0.2034753,1.460225,0.2632197,-0.1300935,1.403213,NA,NA,Unknown,Unknown,
-0.5200195,0.1655273,0.06494141,0.171875,-1.091309,0.5229492,-17,-8,-4,1,34,69,-17,39,3,4,-4,-36,-40,13,6,-2,23,23,23,6,6,6,7.255601,6.098621,3.386011,3.165207,4.900212,5.016204,-0.00941839,-0.2154759,1.228803,0.1007936,0.04311636,1.351347,0.01527424,0.227466,1.601772,0.01863417,-0.1850396,1.238913,0.0730082,0.02774167,1.294896,0.02428025,-0.2248547,1.557261,0.02877094,-0.5300888,1.504682,-0.1516735,-0.0394431,1.570684,-0.06065676,-0.5217614,1.478475,-0.2018648,-0.2033802,1.460397,0.2591169,-0.1261531,1.398979,NA,NA,Unknown,Unknown,
-0.4116211,0.3618164,0.01708984,-0.1186523,-0.9648438,0.4008789,9,3,6,10,94,97,28,-8,1,0,-1,-3,-2,2,20,8,32.8125,32.8125,32.8125,24.3125,24.3125,24.3125,7.254296,5.910836,3.327996,3.199888,5.141106,4.906265,-0.006528221,-0.1982588,1.241773,0.06640918,0.02445896,1.31794,0.01513113,0.2268221,1.602219,0.01791751,-0.1662633,1.245677,0.05058257,-0.02076029,1.277742,0.02418383,-0.2248627,1.557278,0.02862293,-0.5307499,1.504568,-0.1516646,-0.03946129,1.570706,-0.06105897,-0.5228604,1.478912,-0.2026505,-0.2032977,1.460675,0.253889,-0.1230074,1.395146,NA,NA,Unknown,Unknown,
-0.4116211,0.3618164,0.01708984,-0.1186523,-0.9648438,0.4008789,9,3,6,10,94,97,28,-8,1,0,-1,-3,-2,2,20,8,32.8125,32.8125,32.8125,24.3125,24.3125,24.3125,7.254296,5.910836,3.327996,3.199888,5.141106,4.906265,-0.005420859,-0.1769866,1.258318,0.05184988,-0.003777517,1.292562,0.01511891,0.2256856,1.602791,0.0206375,-0.1463876,1.264407,0.04292509,-0.04324979,1.253868,0.0240696,-0.2250751,1.557712,0.02851627,-0.530938,1.50456,-0.1516775,-0.03947732,1.570778,-0.06131961,-0.5233443,1.479332,-0.2033846,-0.2032828,1.461089,0.2516779,-0.1240949,1.395283,NA,NA,NotTracked,Unknown,
-0.293457,0.6328125,-0.001464844,-0.2446289,-0.8710938,0.2236328,7,0,-2,4,-7,-4,-24,-1,-1,-5,-4,-6,-22,-9,-21,-6,38.8125,38.8125,38.8125,45.9375,45.9375,45.9375,7.263378,5.640037,3.250111,3.235988,5.294973,4.879206,0.003581688,-0.1523431,1.27064,0.05147122,-0.03416083,1.275782,0.0151501,0.2249963,1.603317,0.003826383,-0.1056424,1.243641,0.04161881,-0.07010127,1.233,0.02420448,-0.225073,1.558491,0.02858478,-0.530495,1.504874,-0.1517029,-0.03952231,1.570892,-0.06107637,-0.5229282,1.479598,-0.2040983,-0.2034902,1.461866,0.2433085,-0.1247459,1.394128,NA,NA,NotTracked,NotTracked,
-0.0009765625,0.8852539,0.002441406,-0.1289063,-0.5673828,0.2163086,6,-11,-9,-10,-3,18,-5,-7,-3,-6,1,4,-4,-3,21,2,7.4375,7.4375,7.4375,42.1875,42.1875,42.1875,7.252218,5.33913,3.166874,3.279753,5.387109,4.88903,0.02620121,-0.1110173,1.240827,0.04425457,-0.06945626,1.256122,0.01539289,0.2241704,1.604061,0.004843541,-0.07500385,1.22306,0.06843854,-0.1255506,1.273667,0.02375091,-0.2241678,1.561666,0.02928806,-0.5278826,1.505692,-0.1524751,-0.0390767,1.571114,-0.05971256,-0.5202433,1.479307,-0.2018249,-0.2043243,1.459942,0.2620322,-0.1161827,1.403352,NA,NA,NotTracked,NotTracked,
0.8198242,1.759766,0.5429688,-0.1015625,-0.5683594,0.2949219,-2,-4,-12,-12,-13,-3,-10,-2,2,-1,-2,-4,-18,-20,-16,1,-32.75,-32.75,-32.75,-24.0625,-24.0625,-24.0625,7.230132,5.046762,2.988138,3.297904,5.365353,4.926342,-0.02140812,-0.1423815,1.254459,-0.002368417,-0.1331015,1.225178,0.01533709,0.2233561,1.605807,-0.01921885,-0.1076196,1.244918,-0.002611644,-0.1477017,1.2,0.02339751,-0.222884,1.565088,0.03045691,-0.5238378,1.508465,-0.1537203,-0.03809981,1.572603,-0.0576571,-0.5165927,1.479221,-0.2007546,-0.2069868,1.460032,0.1680897,-0.1260986,1.343716,NA,NA,NotTracked,NotTracked,
0.4970703,1.184082,0.4379883,-0.105957,-0.7919922,0.3979492,34,5,4,-3,-1,19,-4,2,2,4,2,0,1,-9,1,-1,-150.8125,-150.8125,-150.8125,-55.1875,-55.1875,-55.1875,7.075729,4.998224,2.945824,3.270911,5.336267,4.945473,-0.02503655,-0.1436803,1.258089,0.0005651477,-0.1422765,1.220629,0.01524225,0.2232877,1.605921,0.008326693,-0.1161755,1.205154,0.002936393,-0.1559658,1.1958,0.02308488,-0.2225545,1.566269,0.03066799,-0.5230756,1.508911,-0.1541961,-0.03785244,1.573217,-0.05722748,-0.5157852,1.479086,-0.2006331,-0.2090228,1.460983,0.1686101,-0.1273147,1.343225,NA,NA,NotTracked,NotTracked,
0.1035156,1.033203,0.2851563,-0.1850586,-1.005371,0.5991211,9,2,19,8,4,10,7,8,-4,-3,-3,-11,-8,-8,-3,-5,-94.875,-94.875,-94.875,6.625,6.625,6.625,7.02415,5.011263,2.942704,3.264225,5.272189,4.981337,-0.02531021,-0.1508354,1.258911,0.01887006,-0.1325449,1.22434,0.0150241,0.2232006,1.606104,0.007793163,-0.1212055,1.207914,0.02676659,-0.1560759,1.19468,0.0228398,-0.2223387,1.567009,0.03079986,-0.5225716,1.509243,-0.1550127,-0.0377552,1.57444,-0.05695007,-0.5153147,1.479011,-0.2013094,-0.2107818,1.462652,0.2372303,-0.1577369,1.408883,NA,NA,NotTracked,NotTracked,
0.08740234,0.9418945,0.3720703,-0.3256836,-0.625,0.3779297,-20,51,-19,-9,-5,-3,-3,-1,-4,-1,1,0,3,10,1,2,-53.1875,-53.1875,-53.1875,23.625,23.625,23.625,6.935561,5.058423,2.91969,3.33164,5.167755,5.020682,-0.02276091,-0.1542605,1.258999,0.01779951,-0.1347373,1.227323,0.01469978,0.2232992,1.606465,-0.02047615,-0.1189194,1.247706,0.01903417,-0.1628948,1.2038,0.02298656,-0.2222131,1.566986,0.03075892,-0.5220227,1.509705,-0.1559903,-0.03771972,1.575917,-0.05684199,-0.5149413,1.479187,-0.2025124,-0.2135475,1.466196,0.23749,-0.1578595,1.409421,NA,NA,NotTracked,NotTracked,
0.08740234,0.9418945,0.3720703,-0.1450195,-0.7265625,0.4848633,10,-40,61,41,7,0,4,9,-4,-5,-3,-3,7,-6,6,0,-53.1875,-53.1875,-53.1875,-10.875,-10.875,-10.875,6.935561,5.058423,2.91969,3.324359,5.034516,5.062868,0.01501858,-0.1603795,1.241854,0.00174786,-0.1305848,1.234795,0.01429616,0.2232274,1.606514,-0.01209559,-0.1269835,1.212971,0.0005115425,-0.1612632,1.218455,0.02322328,-0.2220794,1.566902,0.03055564,-0.5213054,1.510367,-0.1562522,-0.03839648,1.577147,-0.05676114,-0.5144418,1.479823,-0.2071823,-0.2169193,1.478284,0.2438679,-0.1662823,1.419166,NA,NA,NotTracked,NotTracked,
0.06103516,0.871582,0.5483398,0.07861328,-0.8374023,0.5966797,8,18,-16,-6,-5,-3,-2,-8,-1,-3,0,-3,3,-3,-1,-2,-62.1875,-62.1875,-62.1875,-19.9375,-19.9375,-19.9375,6.820763,5.136743,2.898055,3.310869,4.86824,5.093571,0.01505255,-0.1866343,1.249354,0.02887191,-0.09256038,1.242737,0.01407092,0.2231722,1.60657,-0.006976943,-0.1234683,1.215071,0.04979257,-0.1151392,1.210385,0.02325796,-0.2219826,1.566873,0.03026528,-0.5207821,1.510663,-0.1573582,-0.03876326,1.578236,-0.05687547,-0.5140007,1.480175,-0.2090489,-0.2150029,1.487014,0.2288499,-0.1647104,1.399664,NA,NA,NotTracked,NotTracked,
-0.4960938,1.169922,0.5424805,0.3066406,-1.125,0.5029297,-3,-11,3,24,3,5,8,17,-3,-1,-3,-8,4,-5,-9,-2,-6.625,-6.625,-6.625,-10.5,-10.5,-10.5,6.76197,5.283762,2.890979,3.28527,4.717563,5.136872,-0.01840049,-0.2367879,1.248922,0.05434327,-0.0830247,1.248133,0.01381772,0.2232475,1.606625,-0.003924169,-0.2021464,1.254304,0.01477952,-0.04944469,1.275909,0.02334011,-0.2220593,1.566748,0.03012093,-0.520969,1.510633,-0.1568879,-0.03953167,1.578325,-0.0570439,-0.5141693,1.48015,-0.2087036,-0.2167909,1.48906,0.2442943,-0.1775271,1.415108,NA,NA,NotTracked,NotTracked,
-0.7045898,1.23877,0.5449219,0.2880859,-0.9829102,0.7104492,-18,17,76,-13,-14,-6,-5,-3,4,2,2,5,6,3,15,7,24.25,24.25,24.25,33,33,33,6.764402,5.487347,2.8888,3.336769,4.560482,5.131887,-0.02001522,-0.2587832,1.249244,0.07914578,-0.05889433,1.255368,0.01368966,0.2231801,1.606613,0.008886023,-0.2318376,1.273063,0.09480461,-0.02973931,1.2498,0.02353795,-0.2225955,1.566351,0.02980829,-0.52271,1.51021,-0.1563204,-0.04080074,1.578261,-0.05761807,-0.5159296,1.480186,-0.2085845,-0.218394,1.493026,0.2443045,-0.1772891,1.415217,NA,NA,Unknown,NotTracked,
-0.7045898,1.23877,0.5449219,0.2880859,-0.9829102,0.7104492,-18,17,76,-13,-14,-6,-5,-3,4,2,2,5,6,3,15,7,24.25,24.25,24.25,33,33,33,6.764402,5.487347,2.8888,3.336769,4.560482,5.131887,-0.02063506,-0.2749502,1.254545,0.07728461,-0.01880128,1.266101,0.01345864,0.2230163,1.606839,0.004699362,-0.2452504,1.281,0.08696997,0.001751619,1.244789,0.02346441,-0.2237695,1.565887,0.02863527,-0.5272122,1.509505,-0.1560407,-0.04119439,1.578229,-0.05967963,-0.5205864,1.481368,-0.2079486,-0.2196409,1.500412,0.2445582,-0.1754845,1.416306,NA,NA,Unknown,Unknown,
-0.7636719,1.119629,0.5854492,0.1542969,-0.9116211,0.4609375,-14,11,62,42,4,-2,-5,-8,-5,-3,-2,-1,2,-11,-12,-8,35.625,35.625,35.625,18.875,18.875,18.875,6.822602,5.715705,2.899531,3.368802,4.513702,5.11768,-0.02099958,-0.2852254,1.261962,0.09140949,0.02781498,1.281653,0.01338329,0.2230203,1.606879,0.01332929,-0.2538892,1.288895,0.1049347,0.05358578,1.26935,0.02261243,-0.2249684,1.565037,0.02739113,-0.5300547,1.509336,-0.156623,-0.04165949,1.578493,-0.06129602,-0.5231646,1.482069,-0.2066752,-0.2213338,1.500621,0.2465648,-0.1683926,1.419134,NA,NA,Unknown,Unknown,
-0.9936523,0.9501953,0.2626953,0.4023438,-0.7890625,0.5439453,-59,-55,-81,-58,-11,-5,-5,-19,-4,-3,-4,-17,-10,-19,-11,-10,63.25,63.25,63.25,-16.5625,-16.5625,-16.5625,6.891077,6.04128,2.949248,3.363818,4.466588,5.10163,-0.02127525,-0.2934567,1.270409,0.1327139,0.05209718,1.325577,0.01336969,0.2235495,1.606421,0.02209859,-0.2669874,1.2965,0.12971,0.05266165,1.282387,0.02274105,-0.2249472,1.564903,0.02734672,-0.5300719,1.509277,-0.1568004,-0.04174999,1.578487,-0.06146467,-0.5230955,1.481576,-0.2047707,-0.2235249,1.501344,0.2520203,-0.157422,1.420798,NA,NA,Unknown,Unknown,
-0.9052734,0.5727539,0.1850586,0.3955078,-0.8671875,0.4975586,-118,-56,-9,-18,-3,3,-5,-25,1,-1,0,0,23,5,0,-1,93.4375,93.4375,93.4375,-16.3125,-16.3125,-16.3125,7.072259,6.369941,3.077965,3.353694,4.438922,5.068387,-0.02066676,-0.3009693,1.275639,0.1385977,0.09969617,1.366245,0.0138839,0.223834,1.605082,0.02150555,-0.2674774,1.301652,0.1287467,0.1197813,1.304667,0.02303012,-0.2248587,1.564843,0.02738744,-0.5296758,1.509301,-0.1558394,-0.04213198,1.578123,-0.06148674,-0.5221475,1.48076,-0.2043897,-0.2230164,1.504728,0.2622676,-0.1555092,1.420066,NA,NA,Unknown,Unknown,
-0.8222656,0.4018555,0.04589844,0.347168,-0.8310547,0.4970703,51,21,14,4,3,5,-3,14,-5,-2,-2,-4,-6,-15,-15,-7,117.6875,117.6875,117.6875,-6.1875,-6.1875,-6.1875,7.377726,6.634401,3.298446,3.356827,4.423931,5.034188,-0.02053572,-0.3093674,1.2885,0.1503047,0.1944165,1.429915,0.02512314,0.2200125,1.6006,0.0168565,-0.2771695,1.326533,0.1574978,0.2180273,1.377586,0.023993,-0.2242217,1.566109,0.02811211,-0.5282484,1.509073,-0.1525597,-0.04261573,1.577085,-0.06092921,-0.5199419,1.478953,-0.2065898,-0.2237769,1.509864,0.2614926,-0.07133474,1.384806,NA,NA,Open,Unknown,
-0.6381836,0.2856445,-0.03076172,0.3564453,-0.9111328,0.519043,2,3,-2,3,0,-8,-1,-5,2,0,-1,-5,-11,4,4,1,85.25,85.25,85.25,-2.5,-2.5,-2.5,7.723525,6.784918,3.571626,3.365644,4.412084,4.981133,-0.01420107,-0.3100582,1.297629,0.1640157,0.1774353,1.444731,0.03120308,0.219659,1.59853,0.02197204,-0.287255,1.347875,0.1716286,0.2060305,1.396536,0.02505405,-0.2237983,1.565701,0.02907094,-0.527024,1.508842,-0.1513594,-0.04237908,1.576919,-0.05994488,-0.517993,1.477568,-0.206423,-0.223689,1.51135,0.2632189,-0.05232251,1.381926,NA,NA,Open,Unknown,
-0.6381836,0.2856445,-0.03076172,0.3564453,-0.9111328,0.519043,2,3,-2,3,0,-8,-1,-5,2,0,-1,-5,-11,4,4,1,85.25,85.25,85.25,-2.5,-2.5,-2.5,7.723525,6.784918,3.571626,3.365644,4.412084,4.981133,-0.01472957,-0.3105966,1.304294,0.165419,0.188575,1.448177,0.03494995,0.2199312,1.597879,0.02328751,-0.2861215,1.350611,0.1727804,0.2190718,1.402933,0.02577925,-0.2233265,1.565472,0.03006056,-0.5255131,1.508745,-0.1503677,-0.04215766,1.57686,-0.05919411,-0.5162591,1.476854,-0.2065956,-0.2234395,1.51252,0.264644,-0.04246473,1.381502,NA,NA,Open,Unknown,
-0.5175781,0.1923828,-0.175293,0.3134766,-0.8408203,0.5366211,-6,-4,-4,-4,-4,3,18,3,-1,-1,-2,-4,6,-6,1,0,88.5625,88.5625,88.5625,17,17,17,8.067396,6.83307,3.769284,3.391252,4.422554,4.95507,-0.0132343,-0.3103745,1.310438,0.1614652,0.2103332,1.443738,0.03763221,0.2205401,1.597914,0.02473289,-0.2788035,1.347177,0.1695124,0.2402276,1.398875,0.02670771,-0.2226385,1.565175,0.03113044,-0.5238727,1.508492,-0.1491882,-0.04175074,1.576805,-0.05831414,-0.5143834,1.475942,-0.2068203,-0.2229237,1.513734,0.2628249,0.003298686,1.382411,NA,NA,Open,Open,
-0.8603516,0.2338867,-0.3271484,0.3276367,-0.8461914,0.5126953,-12,-1,-1,-3,-3,-2,1,2,-6,-2,-3,-1,-21,2,0,-2,40.25,40.25,40.25,0.1875,0.1875,0.1875,7.935902,6.75842,3.509862,3.406161,4.442656,4.932931,-0.0127361,-0.3099139,1.31593,0.1630123,0.2088043,1.426527,0.03848228,0.2205234,1.597808,0.0245825,-0.2723533,1.343667,0.1720024,0.2364241,1.381909,0.02750869,-0.2218745,1.56504,0.03198865,-0.5222918,1.508486,-0.1485297,-0.04143657,1.576885,-0.05754659,-0.5127802,1.475589,-0.2072397,-0.2226923,1.515508,0.2629786,0.005905826,1.382934,NA,NA,Open,Open,
-0.8803711,0.5688477,-0.09423828,0.3056641,-0.871582,0.5200195,14,18,-38,-54,-16,-7,-3,4,-2,-1,-3,-3,8,0,-7,-4,21.6875,21.6875,21.6875,0,0,0,7.639899,6.673762,3.138593,3.406016,4.459023,4.923145,-0.009889656,-0.3061008,1.319204,0.1683452,0.2624957,1.378054,0.03904458,0.2168957,1.600075,0.02868991,-0.2761511,1.353333,0.1345033,0.2581693,1.433357,0.02870593,-0.2213216,1.564855,0.03398205,-0.520044,1.508297,-0.1483822,-0.04134807,1.576868,-0.05588706,-0.5108708,1.474528,-0.2077162,-0.2230545,1.518209,0.261118,0.01829996,1.384817,NA,NA,Unknown,Open,
0.4819336,0.5595703,1.003418,0.2973633,-0.7841797,0.480957,47,49,-64,20,10,1,2,8,-1,-2,1,-2,-2,6,-4,-1,65.3125,65.3125,65.3125,10.625,10.625,10.625,7.439476,6.587335,2.868497,3.412707,4.484473,4.926072,-0.00916901,-0.3031586,1.31946,0.173848,0.263109,1.370419,0.03871563,0.2156665,1.601482,0.004401728,-0.2798609,1.282614,0.1438411,0.2532443,1.414364,0.02914217,-0.2210542,1.566,0.03472751,-0.5194275,1.508406,-0.1483781,-0.04133457,1.576869,-0.05541483,-0.5105527,1.474469,-0.2075833,-0.2233131,1.519204,0.2611214,0.01819369,1.384831,NA,NA,Unknown,Open,
-0.1850586,0.7871094,0.4047852,0.3183594,-0.8613281,0.5112305,3,16,10,-8,-2,6,-2,2,-3,2,0,-1,3,-7,4,3,-136.3125,-136.3125,-136.3125,11.75,11.75,11.75,7.432443,6.62393,2.98935,3.417295,4.499402,4.950064,-0.007699233,-0.301765,1.31934,0.1731896,0.2619588,1.388563,0.0384618,0.2154705,1.601952,-0.03671322,-0.3140577,1.28744,0.1466743,0.2383585,1.432062,0.02931121,-0.2206048,1.566954,0.0348334,-0.5192518,1.508443,-0.1483658,-0.04133061,1.57688,-0.05533456,-0.5103335,1.474535,-0.207703,-0.2235789,1.520619,0.2610508,0.0177873,1.384736,NA,NA,Unknown,Open,
-1.045898,0.2607422,-0.5913086,0.2768555,-0.7695313,0.5102539,-10,-5,0,-4,-1,-3,12,8,2,0,0,-1,-2,-4,0,1,-12.5625,-12.5625,-12.5625,18.3125,18.3125,18.3125,8.048008,6.824955,3.914418,3.434028,4.496537,4.963588,-0.008494188,-0.2991513,1.316099,0.1606963,0.2098124,1.447681,0.03926922,0.2167909,1.601771,-0.03367592,-0.3153051,1.28362,0.1428646,0.1759922,1.485308,0.02954445,-0.2204397,1.566766,0.03490421,-0.5191297,1.508303,-0.1478073,-0.0412534,1.576895,-0.05533254,-0.5102443,1.474525,-0.2225624,-0.2476163,1.50957,0.2631026,-0.006237088,1.381107,NA,NA,Open,Open,
-1.32666,0.2089844,-0.9658203,0.3056641,-0.7744141,0.4926758,33,21,6,1,2,14,-21,-13,-3,-2,-2,0,5,2,-3,-3,-24.125,-24.125,-24.125,-13.5,-13.5,-13.5,8.337309,6.82137,4.244508,3.423811,4.488168,4.973487,-0.009430918,-0.2986432,1.31469,0.1543304,0.2028057,1.463202,0.04135945,0.2182748,1.60086,-0.001964583,-0.2737582,1.275984,0.1301247,0.1674945,1.482,0.02995023,-0.220525,1.566118,0.03487959,-0.5191531,1.508239,-0.147197,-0.04125782,1.576836,-0.05539581,-0.5102853,1.474571,-0.2235934,-0.2485931,1.509452,0.2588238,0.0003694239,1.379508,NA,NA,Open,Unknown,
-1.088379,0.1757813,-0.7236328,0.3686523,-0.8227539,0.565918,1,-6,-3,1,0,3,0,0,0,-1,0,0,-1,2,-3,-1,26.3125,26.3125,26.3125,-16.625,-16.625,-16.625,8.315449,6.821358,4.194749,3.393039,4.477427,4.973698,-0.009867732,-0.2993337,1.312989,0.1562567,0.2083194,1.443747,0.04250447,0.2187176,1.59963,-0.002176451,-0.2738566,1.276219,0.1342315,0.1788632,1.447613,0.03032749,-0.2204748,1.565754,0.03497732,-0.5191661,1.508177,-0.1468262,-0.04120151,1.57685,-0.05529633,-0.5103043,1.474541,-0.2249672,-0.2512043,1.507499,0.2583475,0.0006699064,1.379155,NA,NA,Open,Unknown,
-0.9033203,0.1582031,-0.5058594,0.3442383,-0.8041992,0.5546875,-6,-7,-11,2,3,-6,-7,-14,-5,-1,1,1,1,5,4,2,60.5625,60.5625,60.5625,-3.0625,-3.0625,-3.0625,7.683404,6.813726,3.396807,3.390161,4.476835,4.973145,-0.009915971,-0.2989217,1.311623,0.1790991,0.2502113,1.359272,0.04174036,0.2172009,1.600773,-6.667164E-05,-0.2745934,1.274239,0.1554618,0.2620223,1.409616,0.03088868,-0.2205902,1.565536,0.03608101,-0.5190336,1.508195,-0.1468069,-0.04117387,1.576897,-0.05438612,-0.5101328,1.474319,-0.2266329,-0.2535707,1.506349,0.2572384,0.002758699,1.379093,NA,NA,Open,Unknown,
0.8027344,0.5268555,1.111328,0.3276367,-0.7485352,0.5292969,14,-12,-15,-38,-13,2,4,4,-1,0,0,5,-6,-10,0,1,119.5,119.5,119.5,9.9375,9.9375,9.9375,7.235782,6.552894,2.74454,3.401462,4.485477,4.991305,-0.01024634,-0.2987927,1.310778,0.1885598,0.2345555,1.343578,0.04042564,0.2161206,1.602129,-0.0005529948,-0.2745575,1.2737,0.1696039,0.2597065,1.387882,0.0310682,-0.2206256,1.565519,0.03646346,-0.5190666,1.508261,-0.1468538,-0.04120212,1.576916,-0.05404029,-0.5102022,1.474407,-0.2275997,-0.255849,1.505378,0.2576944,0.0002499054,1.378934,NA,NA,Unknown,Unknown,
-0.1713867,0.762207,0.4833984,0.3447266,-0.8374023,0.5380859,18,8,23,-1,-4,2,-5,-1,-1,-1,1,5,-2,-5,-1,-2,-157.4375,-157.4375,-157.4375,23.4375,23.4375,23.4375,7.087776,6.504414,2.719222,3.412228,4.487534,5.022503,-0.008991874,-0.2987781,1.309242,0.1937263,0.2057844,1.345495,0.03889216,0.2157983,1.602815,-0.04410331,-0.312623,1.277319,0.1725508,0.1888143,1.39281,0.03110839,-0.2206596,1.565464,0.03649402,-0.5191005,1.508256,-0.1469549,-0.04125855,1.576942,-0.05399688,-0.5102584,1.474457,-0.2283324,-0.2594561,1.503429,0.2609886,-0.011553,1.378822,NA,NA,Unknown,Unknown,
-0.8139648,0.1186523,0.3505859,0.3344727,-0.8081055,0.5078125,-8,31,25,4,0,4,4,1,0,-3,-3,0,1,-7,0,0,-89.625,-89.625,-89.625,24.3125,24.3125,24.3125,6.92204,6.559608,2.789762,3.446342,4.47724,5.066202,-0.01223629,-0.3003829,1.304736,0.1826705,0.1809965,1.367335,0.03621968,0.2173532,1.603289,-0.04283022,-0.3104564,1.27,0.1645753,0.1731561,1.419783,0.03085352,-0.2208662,1.566058,0.03635015,-0.5195848,1.508229,-0.1476812,-0.04133171,1.577387,-0.05409386,-0.5109929,1.474778,-0.226857,-0.2603714,1.500333,0.2648278,-0.06046436,1.383304,NA,NA,Unknown,Unknown,
-1.032715,0.5341797,-0.09130859,0.3188477,-0.8193359,0.5283203,67,39,3,8,3,-6,-8,-2,-1,0,-1,4,23,-8,7,0,-32,-32,-32,9.125,9.125,9.125,6.938981,6.528902,2.847727,3.449964,4.465426,5.086995,-0.01349002,-0.3016471,1.303829,0.1782202,0.1417295,1.362598,0.03474147,0.2181234,1.602968,-0.01232347,-0.2765804,1.263222,0.1594941,0.1332808,1.420105,0.03086541,-0.2210256,1.565827,0.03621212,-0.5199471,1.508225,-0.1480219,-0.04152275,1.577479,-0.05416415,-0.5116622,1.474876,-0.2246929,-0.2589737,1.499851,0.2613668,-0.08468956,1.388333,NA,NA,Unknown,Unknown,
-1.152832,0.7290039,0.008300781,0.4194336,-0.8242188,0.590332,-17,-31,-46,-15,-7,-8,-43,-4,-7,-2,-4,-8,1,-32,-28,-16,-115.75,-115.75,-115.75,-0.5625,-0.5625,-0.5625,6.809953,6.374031,2.820386,3.449134,4.457221,5.095744,-0.01551686,-0.3025189,1.300261,0.1680199,0.1218191,1.353384,0.03356515,0.2188661,1.602806,-0.04312742,-0.3096921,1.263901,0.1527994,0.1108315,1.412423,0.03081971,-0.2212307,1.565366,0.03590202,-0.5204304,1.507948,-0.1479535,-0.04175669,1.577373,-0.05442053,-0.5122666,1.474855,-0.2247239,-0.2588717,1.499961,0.2578628,-0.1114758,1.398349,NA,NA,Unknown,Unknown,
-0.6855469,0.7612305,0.5473633,0.3618164,-0.8359375,0.5952148,-8,9,23,3,-9,-2,8,-11,3,-1,0,1,-10,-3,34,7,-39.875,-39.875,-39.875,1.0625,1.0625,1.0625,6.599957,6.014175,2.686453,3.453366,4.466346,5.100308,-0.01696378,-0.3003119,1.291912,0.1597592,0.0541012,1.292874,0.03114554,0.2198193,1.602631,0.03040715,-0.2815219,1.343625,0.1763943,0.07842276,1.2818,0.03068873,-0.2214099,1.565206,0.03501535,-0.5218561,1.507704,-0.1479665,-0.04216056,1.577292,-0.05527284,-0.5142289,1.475062,-0.2245037,-0.2613059,1.49948,0.2561602,-0.1584433,1.422481,NA,NA,Unknown,Unknown,
-0.3554688,0.8764648,0.5756836,0.3007813,-0.9575195,0.5854492,-3,-31,-52,-18,-9,-2,-5,-2,9,1,-69,-12,8,-2,3,-11,-44.625,-44.625,-44.625,22.1875,22.1875,22.1875,6.546649,5.751786,2.658243,3.47007,4.529333,5.127222,-0.01965296,-0.2943482,1.283984,0.1537155,0.02934196,1.257303,0.0303247,0.2204414,1.60281,0.02780417,-0.3380659,1.3285,0.1874538,0.04462494,1.2672,0.03029236,-0.2217723,1.565257,0.03420484,-0.5236256,1.506936,-0.1481087,-0.04230744,1.577271,-0.0560049,-0.5159925,1.475163,-0.2221449,-0.2638784,1.494968,0.2550966,-0.1692794,1.424744,NA,NA,Closed,Unknown,
-0.1801758,1.092285,0.8227539,0.3261719,-0.9033203,0.6699219,-11,2,-19,-23,-21,-5,15,-4,-6,0,14,-1,-44,-16,-2,2,44.4375,44.4375,44.4375,45.8125,45.8125,45.8125,6.555301,5.574296,2.629049,3.512073,4.610412,5.159299,-0.03557338,-0.2680446,1.275642,0.1476629,-0.03823267,1.251669,0.02937724,0.2210214,1.602811,0.005044397,-0.3015213,1.318429,0.1163635,-0.01768723,1.297,0.02956576,-0.2232397,1.564489,0.0332805,-0.5267966,1.505616,-0.1510818,-0.04256507,1.578274,-0.05655687,-0.5181576,1.474676,-0.2191871,-0.2678447,1.486546,0.2556423,-0.1900486,1.429065,NA,NA,Unknown,Unknown,
-0.59375,1.343262,0.753418,0.1264648,-0.8291016,0.5869141,-9,5,-15,-12,-2,-3,-11,-5,1,0,1,-6,-35,1,-3,-5,-31.25,-31.25,-31.25,14.875,14.875,14.875,6.545696,5.492622,2.621036,3.533064,4.696154,5.186042,-0.0453706,-0.2502204,1.271423,0.1423554,-0.0517974,1.261715,0.02908998,0.22137,1.602685,-0.009742819,-0.2125625,1.296143,0.1044579,-0.02968896,1.291938,0.02953085,-0.2235081,1.563833,0.03316629,-0.5270033,1.505366,-0.151563,-0.04246678,1.578385,-0.05662207,-0.5183884,1.474457,-0.2190854,-0.2689632,1.48488,0.2557077,-0.1957965,1.431892,NA,NA,Unknown,Unknown,
-0.675293,0.8896484,0.7021484,0.01367188,-0.8291016,0.4975586,3,-3,4,16,1,-4,1,5,3,2,-7,-9,-7,16,-9,-10,-57.375,-57.375,-57.375,5.4375,5.4375,5.4375,6.498317,5.49001,2.64646,3.524691,4.787808,5.22586,-0.05222117,-0.2344465,1.271229,0.1417403,-0.05790475,1.270417,0.02890078,0.2215984,1.602551,-0.02048458,-0.1898291,1.2935,0.09990758,-0.03102224,1.292357,0.0294809,-0.22366,1.563323,0.03304356,-0.5270505,1.505253,-0.1517802,-0.04232429,1.578458,-0.05666381,-0.5184156,1.474433,-0.2193079,-0.2697116,1.485644,0.2559114,-0.2004036,1.435665,NA,NA,Unknown,Unknown,
-0.7070313,0.8588867,0.6142578,0.1157227,-0.6889648,0.5546875,-15,6,-21,-5,4,10,40,3,-6,-5,-11,-5,4,4,1,-5,-43.1875,-43.1875,-43.1875,-43.5625,-43.5625,-43.5625,6.477678,5.506801,2.655823,3.490223,4.86084,5.239399,-0.05919115,-0.2246077,1.271062,0.1417032,-0.05695634,1.277216,0.028912,0.2218349,1.602355,-0.01462349,-0.1829776,1.292857,0.09901439,-0.02937058,1.297727,0.02948053,-0.2238141,1.562874,0.03295193,-0.5271143,1.505027,-0.1519959,-0.04211437,1.578531,-0.05669468,-0.5184614,1.47424,-0.220726,-0.2701249,1.486923,0.2561543,-0.2030492,1.438475,NA,NA,Unknown,Closed,
-0.4682617,0.7832031,0.6704102,-0.02050781,-0.7851563,0.5708008,-6,-14,-7,-5,-8,-4,7,-4,-1,-5,-7,-5,4,-9,-3,-1,13.9375,13.9375,13.9375,-27.375,-27.375,-27.375,6.488471,5.601842,2.655614,3.454241,4.888995,5.221747,-0.06159623,-0.2111514,1.27416,0.1416595,-0.0400193,1.293143,0.02907772,0.2219349,1.602001,-0.01513869,-0.1750688,1.293555,0.09533194,-0.01421292,1.323,0.02949236,-0.2240703,1.562488,0.03275013,-0.5275491,1.504516,-0.1520513,-0.04184794,1.578419,-0.05678089,-0.5187361,1.473955,-0.2276846,-0.2721424,1.500604,0.2561257,-0.2040569,1.440177,NA,NA,Unknown,Closed,
-0.5732422,0.8334961,0.4975586,0.08300781,-0.6362305,0.5761719,-3,-4,-28,-14,-9,-12,-13,-2,-1,5,1,-4,10,21,0,-9,-13.375,-13.375,-13.375,-11.9375,-11.9375,-11.9375,6.498561,5.729208,2.692283,3.449591,4.889306,5.213107,-0.06043747,-0.2093245,1.273662,0.1419838,-0.03100753,1.298582,0.02917401,0.2219288,1.601897,-0.01160148,-0.1743991,1.292,0.1576137,0.005364823,1.298667,0.02943682,-0.224198,1.562495,0.03265086,-0.5281209,1.504043,-0.1519071,-0.04158499,1.578162,-0.05687785,-0.5191543,1.473669,-0.228684,-0.2715547,1.500954,0.2557572,-0.203171,1.440286,NA,NA,Closed,Closed,
-0.5654297,0.6430664,0.5253906,0.1347656,-0.7802734,0.5820313,1,9,12,-5,-7,-10,2,2,-2,-1,-3,-5,7,8,1,1,-24,-24,-24,-19.1875,-19.1875,-19.1875,6.480566,5.829611,2.764644,3.433032,4.866249,5.2099,-0.05594486,-0.2127287,1.272637,0.1368394,-0.01581949,1.316165,0.02947893,0.2219223,1.60195,-0.05271639,-0.173246,1.251387,0.150463,0.01423336,1.304529,0.02954138,-0.224792,1.561787,0.03248184,-0.5291113,1.503449,-0.1514404,-0.04073703,1.577527,-0.05708197,-0.520073,1.473986,-0.2310269,-0.269977,1.497732,0.2536103,-0.198473,1.439629,NA,NA,Closed,Closed,
-0.5019531,0.6547852,0.5507813,0.2397461,-0.7929688,0.6225586,-20,-13,-7,13,28,23,20,3,1,-2,1,2,15,22,7,2,-2.9375,-2.9375,-2.9375,-3.375,-3.375,-3.375,6.502639,5.87655,2.827198,3.440827,4.81516,5.198503,-0.05402528,-0.2156803,1.271778,0.1305759,-0.01075545,1.322274,0.02982395,0.2221816,1.602243,-0.05355958,-0.1775136,1.248183,0.1436667,0.02088182,1.3114,0.02944315,-0.2248535,1.561849,0.0323768,-0.5293481,1.503288,-0.1512842,-0.04048055,1.577362,-0.05727982,-0.5205736,1.474799,-0.2313575,-0.2694934,1.497577,0.2532782,-0.1971463,1.439533,NA,NA,Closed,Closed,
-0.6518555,0.6577148,0.734375,0.1030273,-0.7998047,0.5249023,20,-3,-4,-18,-14,-18,-19,-15,4,3,-1,-1,2,-6,-5,-2,-15.75,-15.75,-15.75,-0.875,-0.875,-0.875,6.524056,5.880572,2.927776,3.440112,4.783525,5.182228,-0.05159834,-0.2191838,1.27094,0.1172265,-0.005709528,1.326441,0.03018302,0.2225478,1.602309,-0.04903734,-0.1820942,1.248344,0.1273253,0.02642921,1.316333,0.02937227,-0.2250854,1.56143,0.03224593,-0.529757,1.503029,-0.1509383,-0.03997307,1.576732,-0.05745738,-0.5209453,1.474996,-0.2327719,-0.2689527,1.495105,0.2526532,-0.1943587,1.43846,NA,NA,Closed,Closed,
-0.8266602,0.6269531,0.6313477,0.05224609,-0.7446289,0.4692383,12,45,12,3,-5,-2,-8,-10,-2,-2,-3,-4,-13,-15,-6,-2,-36.5625,-36.5625,-36.5625,-2.3125,-2.3125,-2.3125,6.666672,5.822567,3.283612,3.442051,4.730628,5.164038,-0.04288583,-0.2337986,1.271491,0.07442653,-0.01043593,1.346712,0.03329186,0.223988,1.602927,0.0008692206,-0.2005519,1.293273,0.07907541,0.02023515,1.324133,0.02925453,-0.22543,1.560357,0.03237054,-0.5305107,1.502572,-0.1504614,-0.0395997,1.576032,-0.05743558,-0.5214403,1.474653,-0.2312077,-0.2662012,1.490396,0.2489825,-0.1857446,1.432392,NA,NA,Unknown,Unknown,
-0.6508789,0.4619141,0.5234375,0.2509766,-0.7548828,0.5546875,4,17,8,1,0,0,13,14,2,1,-3,1,36,11,-3,3,14.625,14.625,14.625,-25.5,-25.5,-25.5,6.847809,5.766985,3.772518,3.406355,4.544052,5.140004,-0.03549873,-0.2638903,1.27162,0.01822215,-0.01377081,1.388813,0.04263149,0.2246792,1.603909,0.01398849,-0.2407144,1.3025,0.03259789,0.01852787,1.393333,0.03186594,-0.2255551,1.559019,0.03449505,-0.53233,1.501606,-0.1400339,-0.04168418,1.563544,-0.05478668,-0.5229019,1.467581,-0.2263185,-0.2632299,1.483746,0.2365634,-0.1705569,1.420365,NA,NA,Unknown,Unknown,
-0.3056641,0.8769531,0.2211914,0.3886719,-0.8046875,0.5234375,-23,-30,-8,-6,-2,15,-2,-10,-2,-3,-2,-2,10,6,1,-2,42.0625,42.0625,42.0625,-14.75,-14.75,-14.75,7.021422,5.705706,4.061463,3.387547,4.425903,5.144025,-0.03275602,-0.2825935,1.272209,0.004064735,-0.01950055,1.406861,0.04625632,0.2233189,1.603908,0.007896584,-0.2530924,1.299167,0.04393907,-0.0158696,1.380518,0.03292819,-0.2259842,1.55891,0.03561956,-0.5330891,1.50144,-0.1301193,-0.04096095,1.550703,-0.05359032,-0.5230888,1.465096,-0.2228939,-0.2595093,1.481518,0.2202147,-0.1610043,1.409551,NA,NA,Unknown,Unknown,
0.503418,0.7983398,0.2841797,0.6074219,-0.7807617,0.4199219,18,13,7,31,-31,5,5,4,-16,-14,-5,4,20,17,0,-7,22.75,22.75,22.75,2.75,2.75,2.75,7.156489,5.578402,4.28927,3.364474,4.235935,5.190523,-0.03531685,-0.3231399,1.274502,-0.02465317,-0.02096904,1.417966,0.05171092,0.2215324,1.603413,-7.779467E-05,-0.2943581,1.322077,-0.04919434,0.008449674,1.401286,0.03471486,-0.2266904,1.559044,0.0392377,-0.5340039,1.501507,-0.114766,-0.03581157,1.526821,-0.04970232,-0.5231372,1.462536,-0.220948,-0.2590029,1.482779,0.1955942,-0.1474687,1.399365,NA,NA,Closed,Unknown,
0.590332,1.015137,0.2158203,0.7250977,-0.6606445,0.3725586,28,18,-3,-6,23,14,-5,8,4,3,0,0,-18,-14,0,0,-7.6875,-7.6875,-7.6875,42.8125,42.8125,42.8125,7.154507,5.479084,4.29608,3.393747,4.063626,5.242816,-0.038304,-0.3426149,1.277068,-0.02998362,-0.02124306,1.41761,0.05336687,0.2211822,1.603324,-0.0002888812,-0.3163186,1.31665,-0.001709999,-0.004057198,1.404292,0.0353796,-0.2267916,1.559214,0.04073158,-0.5339594,1.501704,-0.1144462,-0.0354352,1.525955,-0.04803276,-0.5229133,1.461852,-0.2177401,-0.2589266,1.483382,0.1913981,-0.145241,1.39818,NA,NA,Unknown,Unknown,
0.590332,1.015137,0.2158203,0.7250977,-0.6606445,0.3725586,28,18,-3,-6,23,14,-5,8,4,3,0,0,-18,-14,0,0,-7.6875,-7.6875,-7.6875,42.8125,42.8125,42.8125,7.154507,5.479084,4.29608,3.393747,4.063626,5.242816,-0.04652712,-0.3603309,1.281863,-0.03405472,-0.01676344,1.415128,0.05406494,0.2211242,1.60322,-0.004014158,-0.3352366,1.322643,-0.0566671,0.01732573,1.404,0.0361483,-0.2269529,1.559329,0.04202289,-0.5339934,1.50174,-0.1141061,-0.03528552,1.525404,-0.04677396,-0.5229421,1.4615,-0.2134077,-0.2587728,1.485296,0.1868199,-0.1420778,1.39659,NA,NA,Unknown,Unknown,
0.5405273,1.108887,0.2084961,0.8051758,-0.6953125,0.371582,34,34,10,29,-15,-9,-2,10,7,-2,0,6,-6,-14,-2,4,-7.75,-7.75,-7.75,26.75,26.75,26.75,7.108134,5.511353,4.17721,3.405969,3.974914,5.275187,-0.05657627,-0.3754834,1.288975,-0.02554308,-0.01406962,1.405722,0.05421421,0.2210117,1.603106,-0.01985027,-0.3512695,1.3463,-0.003727255,0.0135714,1.401693,0.03655397,-0.2271064,1.559351,0.04290257,-0.5343597,1.501669,-0.1138085,-0.03544155,1.525752,-0.04611025,-0.5233361,1.461254,-0.1783042,-0.2342037,1.520265,0.1922154,-0.1464715,1.399634,NA,NA,Closed,Unknown,
-0.05957031,0.9526367,0.28125,0.7685547,-0.7387695,0.4833984,-9,-27,5,-9,0,1,-18,-10,-4,-2,-2,-4,-21,2,-2,-4,-14.875,-14.875,-14.875,31.5625,31.5625,31.5625,7.010139,5.604682,3.958771,3.425946,3.917752,5.294495,-0.06406269,-0.3869822,1.295583,-0.004016655,-0.008287261,1.387061,0.0541956,0.2210165,1.603102,-0.02730846,-0.364181,1.3538,0.02299923,0.01843363,1.392773,0.03720942,-0.2273596,1.55901,0.04360342,-0.5351828,1.501121,-0.1147418,-0.03663865,1.529886,-0.04566227,-0.5244281,1.460945,-0.1787352,-0.234151,1.521047,0.2066939,-0.155797,1.406622,NA,NA,Closed,Unknown,
-0.300293,0.8818359,0.4462891,0.6572266,-0.7290039,0.4716797,51,-35,-6,-15,-15,13,40,100,0,-1,2,0,-4,6,1,-1,46.5,46.5,46.5,25.875,25.875,25.875,6.902247,5.727335,3.60674,3.443316,3.888,5.313617,-0.07324976,-0.3954571,1.306233,0.005130935,0.001681951,1.364308,0.0527247,0.2217712,1.603066,-0.03806619,-0.371936,1.368077,0.02557421,0.04412285,1.380208,0.03749587,-0.2274138,1.558627,0.04366352,-0.5357354,1.500767,-0.1270581,-0.03973125,1.54657,-0.04584187,-0.5262566,1.462683,-0.1797571,-0.2375471,1.52335,0.2123106,-0.1569953,1.40777,NA,NA,Unknown,Unknown,
-0.4243164,0.5820313,0.6621094,0.6538086,-0.6782227,0.4970703,-18,1,-1,-25,3,10,-14,-24,5,1,-1,0,-6,-19,0,4,81.6875,81.6875,81.6875,26.375,26.375,26.375,6.765059,5.826336,3.146795,3.463564,3.867547,5.330713,-0.0838973,-0.4077032,1.323882,0.1289942,0.004525422,1.311728,0.04371374,0.2215549,1.601526,-0.04128017,-0.3805601,1.329889,0.1816066,0.008509477,1.3303,0.03577109,-0.22869,1.557669,0.04237698,-0.5376768,1.499245,-0.1434956,-0.04359999,1.567459,-0.04850915,-0.5307134,1.46804,-0.1851047,-0.2521219,1.533334,0.255099,-0.1766788,1.424453,NA,NA,Closed,Unknown,
-0.7949219,0.4804688,0.9121094,0.5449219,-0.7441406,0.5205078,-6,-9,-8,-18,-12,57,-40,-42,11,2,-6,-1,-4,-2,-1,6,111.875,111.875,111.875,10.875,10.875,10.875,6.625131,5.870589,2.65814,3.470558,3.852994,5.343828,-0.08699937,-0.4108132,1.331996,0.186909,0.0009388949,1.294361,0.04119879,0.2216059,1.60052,-0.04296742,-0.3860405,1.337,0.2271716,0.01132643,1.304091,0.03539633,-0.2286652,1.55788,0.04210121,-0.5374982,1.498963,-0.1459009,-0.04374567,1.5705,-0.04865861,-0.530619,1.467958,-0.187333,-0.252322,1.536868,0.2743914,-0.1821935,1.439891,NA,NA,Closed,Unknown,
-0.5698242,0.2958984,1.28125,0.5424805,-0.7045898,0.5351563,34,-10,-6,-12,-18,-8,10,-2,-2,-2,4,-3,4,18,-1,1,104.25,104.25,104.25,7.5625,7.5625,7.5625,6.522935,5.845918,2.117655,3.484831,3.831058,5.356459,-0.0891308,-0.4141984,1.33948,0.2258472,-0.005155297,1.284857,0.03877338,0.2219163,1.599764,-0.04590259,-0.390502,1.330065,0.1784714,-0.01986929,1.264344,0.03520451,-0.2284643,1.557987,0.04199337,-0.5364898,1.498657,-0.1477144,-0.04393102,1.572921,-0.04857881,-0.5299791,1.467778,-0.1882408,-0.2555386,1.540101,0.284023,-0.1863044,1.457372,NA,NA,Closed,Unknown,
-0.8100586,0.2211914,1.002441,0.543457,-0.6918945,0.4863281,-5,-7,-2,11,-5,-20,0,4,9,17,1,-3,1,0,0,2,5.625,5.625,5.625,-8.25,-8.25,-8.25,6.473356,5.791302,2.062826,3.479101,3.812612,5.356029,-0.09370303,-0.4188633,1.34895,0.2464135,-0.02159672,1.278939,0.03573414,0.222867,1.597847,-0.05323916,-0.3946311,1.33959,0.1976765,-0.03436555,1.285056,0.03499068,-0.2277862,1.55791,0.04199866,-0.5339683,1.49808,-0.1489966,-0.0435803,1.574373,-0.04818151,-0.527772,1.467049,-0.1915227,-0.2546509,1.547205,0.2896965,-0.1860045,1.471936,NA,NA,Unknown,Unknown,
-0.7250977,0.355957,0.9311523,0.6147461,-0.7041016,0.5092773,8,22,17,-7,20,1,8,9,20,-5,-9,-7,-3,-3,0,-1,-29.8125,-29.8125,-29.8125,-24.4375,-24.4375,-24.4375,6.457357,5.787951,2.102196,3.464258,3.812774,5.34677,-0.09356748,-0.4240702,1.352753,0.2191387,-0.02880649,1.276549,0.03532863,0.2230896,1.597438,-0.04803194,-0.3899576,1.388561,0.1786764,-0.0428147,1.288909,0.03498552,-0.2272951,1.558055,0.04235287,-0.532829,1.498018,-0.149201,-0.04344549,1.57444,-0.04769676,-0.5267365,1.466879,-0.1907925,-0.2588742,1.547554,0.2895539,-0.1882248,1.473142,NA,NA,Unknown,Unknown,
-0.6572266,0.453125,0.8100586,0.6259766,-0.6513672,0.4980469,10,-113,-46,-6,-11,-1,5,7,8,10,-10,8,-6,-17,2,8,-77.25,-77.25,-77.25,-28.0625,-28.0625,-28.0625,6.40415,5.806866,2.200904,3.454712,3.813258,5.339816,-0.0931148,-0.4265559,1.35282,0.195423,-0.02841127,1.277108,0.03546041,0.2230663,1.597295,-0.0472328,-0.3871582,1.388014,0.1520922,-0.04753559,1.277,0.03499062,-0.2272842,1.558089,0.04234377,-0.5328385,1.497988,-0.1491769,-0.04339321,1.574408,-0.04769928,-0.5267147,1.466786,-0.1900282,-0.2603325,1.546599,0.2852944,-0.1917611,1.46488,NA,NA,Unknown,Unknown,
-0.7338867,0.7260742,0.6069336,0.7109375,-0.5268555,0.3671875,-2,28,6,-8,-2,-3,4,6,-17,-12,-9,-10,-37,2,0,-8,-57.9375,-57.9375,-57.9375,-19.375,-19.375,-19.375,6.414546,5.822349,2.481312,3.437077,3.789245,5.320366,-0.09500527,-0.4261231,1.354978,0.1457149,-0.00128399,1.273815,0.03561266,0.2231244,1.597224,-0.05105092,-0.4077626,1.339333,0.1284451,0.03027337,1.302909,0.03506443,-0.2274103,1.558125,0.042461,-0.5332962,1.497756,-0.1424051,-0.04200739,1.565974,-0.04764485,-0.526861,1.466698,-0.1888117,-0.262222,1.544697,0.2785043,-0.1954394,1.454796,NA,NA,Unknown,Unknown,
-0.4790039,0.8789063,0.4853516,0.7670898,-0.5737305,0.3618164,-14,-36,-6,-2,5,6,-29,13,-7,-7,-4,-2,-1,-5,1,-2,-84.625,-84.625,-84.625,-15.0625,-15.0625,-15.0625,6.456842,5.831851,2.816221,3.421813,3.759234,5.313679,-0.09065189,-0.432785,1.350505,0.1020553,-0.01450802,1.301134,0.03704482,0.2229181,1.597437,-0.04618308,-0.3917104,1.38947,0.06293186,-0.03929552,1.286846,0.03513918,-0.2276698,1.557936,0.04287939,-0.5339261,1.497645,-0.1434533,-0.04105876,1.567473,-0.04723691,-0.5274382,1.467195,-0.1877576,-0.2612862,1.541901,0.2610947,-0.2055018,1.442186,NA,NA,Unknown,Unknown,
-0.5141602,0.8569336,0.7250977,0.8242188,-0.5019531,0.3432617,-28,102,0,-10,-7,-5,-7,-12,-9,-6,-3,0,-7,-6,-1,-4,-43.0625,-43.0625,-43.0625,-16,-16,-16,6.499586,5.854929,3.010553,3.425182,3.717687,5.287726,-0.08832128,-0.4350147,1.350448,0.07900655,-0.009267146,1.314386,0.03817233,0.2230996,1.597982,-0.04476792,-0.3928431,1.389832,0.04818591,-0.03732789,1.3068,0.03526273,-0.2277957,1.557575,0.0433243,-0.5343101,1.497535,-0.1407542,-0.04004151,1.564171,-0.04696127,-0.5275602,1.467222,-0.1863707,-0.2623498,1.53866,0.2602271,-0.2072684,1.441232,NA,NA,Unknown,Unknown,
-0.3442383,0.8979492,0.6132813,0.7939453,-0.550293,0.3496094,11,-11,0,42,4,-11,-26,-3,-19,-4,-2,-4,-15,-10,-3,-4,-7.4375,-7.4375,-7.4375,-26.125,-26.125,-26.125,6.57592,5.856156,3.200489,3.414071,3.696561,5.264369,-0.08630891,-0.4367526,1.349561,0.05630787,-0.003710094,1.325255,0.03997907,0.2238631,1.598661,-0.04402848,-0.394627,1.389225,0.01363465,-0.004880033,1.352,0.03547065,-0.2276192,1.55734,0.04398033,-0.5345336,1.497574,-0.1393537,-0.03938649,1.562491,-0.04630633,-0.5275845,1.467012,-0.1851164,-0.2630067,1.536438,0.2547502,-0.2072352,1.436091,NA,NA,Unknown,Unknown,
-0.08984375,0.8652344,0.5327148,0.7226563,-0.5063477,0.3432617,-9,2,65,83,29,28,10,-12,-3,-6,-2,-5,-19,-15,-4,-2,1.9375,1.9375,1.9375,-10.75,-10.75,-10.75,6.737347,5.769421,3.558131,3.414766,3.663518,5.232712,-0.08566923,-0.4382914,1.353764,0.01250946,-0.01761481,1.358467,0.04478833,0.2244917,1.60043,-0.04439265,-0.3934979,1.389747,-0.02550021,-0.02706319,1.333156,0.03792698,-0.2265376,1.556808,0.04583551,-0.5342059,1.497657,-0.1367207,-0.03928751,1.559652,-0.0433382,-0.5263131,1.464243,-0.1831633,-0.2584665,1.533715,0.2201513,-0.1817818,1.430858,NA,NA,Unknown,Unknown,
0.4033203,0.5458984,0.7631836,0.7719727,-0.5141602,0.3413086,-17,42,-62,25,-2,-9,-59,-67,4,0,-1,1,1,4,2,1,5.4375,5.4375,5.4375,1.6875,1.6875,1.6875,6.859389,5.702014,3.822032,3.418887,3.638272,5.224193,-0.08513609,-0.4418078,1.357281,-0.01403672,-0.01369679,1.392541,0.04648734,0.2238893,1.601401,-0.0436316,-0.3970373,1.391475,-0.03993224,-0.05320429,1.412357,0.03864399,-0.2265433,1.556968,0.0472693,-0.534232,1.497942,-0.1254557,-0.03833786,1.552283,-0.04183743,-0.5260554,1.463057,-0.1825942,-0.2573196,1.533089,0.219801,-0.1816006,1.431353,NA,NA,Unknown,Unknown,
-0.1855469,1.056641,0.2167969,0.7915039,-0.5092773,0.347168,21,-17,-10,-18,-10,-21,-18,-28,4,1,-6,-27,33,1,-2,1,-42.6875,-42.6875,-42.6875,6.9375,6.9375,6.9375,6.966792,5.640072,4.177366,3.431287,3.609957,5.216933,-0.08521562,-0.4467333,1.362258,0.00281629,-0.05211953,1.45802,0.04752035,0.2238604,1.601702,-0.04316337,-0.4003309,1.388935,-0.01686457,-0.05946333,1.43775,0.03913841,-0.2265732,1.556926,0.04829098,-0.5339687,1.497874,-0.1233664,-0.03786582,1.548787,-0.0408452,-0.5254084,1.462319,-0.1815079,-0.2580534,1.531631,0.2192053,-0.1790162,1.430389,NA,NA,Unknown,NotTracked,
-0.7563477,1.28125,-1.043457,0.8115234,-0.5322266,0.2993164,0,-80,-15,33,10,7,-6,-16,-6,2,1,10,19,-2,-8,-15,-45.25,-45.25,-45.25,4.5,4.5,4.5,7.07319,5.56306,4.546037,3.434029,3.578357,5.219302,-0.08529455,-0.4511959,1.364501,0.004119622,-0.05417643,1.463426,0.04759392,0.2238363,1.601711,-0.0446348,-0.4183505,1.38906,-0.01099725,-0.06052867,1.43975,0.03929923,-0.2265579,1.557067,0.04847737,-0.5338979,1.497778,-0.1238755,-0.03802156,1.548956,-0.04075252,-0.5253417,1.46237,-0.1807467,-0.259255,1.530798,0.2192909,-0.1794032,1.428564,NA,NA,Unknown,NotTracked,
-0.168457,0.331543,0.2255859,0.859375,-0.4882813,0.3964844,17,8,-12,-16,-9,19,14,16,6,1,0,10,34,-8,0,3,132.9375,132.9375,132.9375,-6.1875,-6.1875,-6.1875,7.083136,5.708263,4.374388,3.423647,3.540117,5.236692,-0.08537606,-0.4554218,1.366582,-0.003262319,-0.04305776,1.454483,0.04760937,0.2237915,1.601814,-0.04522945,-0.4220169,1.387818,-0.03244129,-0.04752766,1.432667,0.03937193,-0.2266016,1.557013,0.04856386,-0.5338504,1.4977,-0.1238995,-0.03804489,1.548969,-0.04071857,-0.5252513,1.462296,-0.1791118,-0.2624662,1.529486,0.2189947,-0.1793673,1.427584,NA,NA,Unknown,Unknown,
-0.2539063,0.949707,0.5341797,0.7885742,-0.6171875,0.3051758,-2,-7,-21,-2,-3,15,15,17,-9,0,0,6,31,-6,0,-2,10.1875,10.1875,10.1875,18.0625,18.0625,18.0625,7.055877,5.692035,4.318167,3.414403,3.510266,5.256448,-0.08819819,-0.4652136,1.370633,-0.008323081,-0.0251776,1.419413,0.04759159,0.22373,1.60187,-0.04617489,-0.451665,1.357107,-0.04556007,-0.03986024,1.395707,0.03961003,-0.2266069,1.55689,0.04889434,-0.5336199,1.497438,-0.1215549,-0.03776747,1.546208,-0.04044981,-0.5246743,1.461074,-0.1760099,-0.268196,1.528559,0.2165324,-0.1763548,1.425193,NA,NA,Unknown,Unknown,
-0.340332,0.5742188,0.2436523,0.7802734,-0.4389648,0.296875,1,-23,-43,-31,-7,-8,3,7,-10,-3,0,-2,-20,-9,-2,-3,37.25,37.25,37.25,28.375,28.375,28.375,7.003187,5.717528,4.145303,3.435104,3.480739,5.271836,-0.09038751,-0.4686834,1.375449,-0.001785827,-0.02286152,1.406934,0.04756156,0.2237542,1.601885,-0.04773751,-0.4232139,1.392533,-0.03323779,-0.03393362,1.382103,0.03974759,-0.2265802,1.55677,0.04910445,-0.5335263,1.497279,-0.1211965,-0.03774802,1.545617,-0.04029885,-0.5244318,1.460435,-0.1752054,-0.2697185,1.528808,0.2158918,-0.1744721,1.423634,NA,NA,NotTracked,Unknown,
-0.1567383,0.921875,0.7416992,0.7973633,-0.4853516,0.2900391,6,-56,-39,-1,5,11,-1,7,-10,-8,-3,1,-4,15,2,1,-3.9375,-3.9375,-3.9375,9.875,9.875,9.875,6.964459,5.682783,4.059023,3.435308,3.44406,5.289225,-0.0938604,-0.4744968,1.37646,0.01137385,-0.0290076,1.41069,0.04751034,0.2237435,1.601902,-0.0527354,-0.4431466,1.381182,0.001744256,-0.06482082,1.430929,0.03982146,-0.2265388,1.556705,0.04916441,-0.533491,1.497209,-0.1206134,-0.03758807,1.545048,-0.04031812,-0.5242938,1.460166,-0.1734186,-0.2740076,1.528544,0.2158885,-0.1729615,1.422332,NA,NA,NotTracked,Unknown,
-0.3461914,0.5683594,0.6679688,0.8325195,-0.5239258,0.3144531,-13,-15,-31,-4,-5,3,-6,-2,-16,-6,0,6,37,9,-2,0,-27.3125,-27.3125,-27.3125,16.3125,16.3125,16.3125,6.974089,5.693799,4.182729,3.434051,3.387444,5.315622,-0.09862436,-0.4836901,1.38197,0.04696789,-0.05826443,1.440435,0.04717293,0.2238497,1.60167,-0.05561223,-0.4440628,1.385874,0.08125053,-0.04755169,1.4463,0.03984728,-0.2264806,1.556552,0.04905389,-0.5331916,1.497005,-0.120521,-0.03730894,1.545627,-0.04068467,-0.5237995,1.460486,-0.1719727,-0.2784521,1.528674,0.2163557,-0.1722715,1.419618,NA,NA,NotTracked,Unknown,
-0.496582,0.7021484,0.2470703,0.8168945,-0.4301758,0.2719727,16,-64,3,25,3,0,2,13,3,1,0,-1,-11,-25,-61,-13,-69.125,-69.125,-69.125,15.9375,15.9375,15.9375,7.01038,5.66671,4.421444,3.432931,3.347419,5.339033,-0.1024268,-0.4890563,1.386309,0.048019,-0.06368111,1.457679,0.04677602,0.2237919,1.601358,-0.06074166,-0.4503685,1.388706,0.02262815,-0.03039198,1.4542,0.03980668,-0.2264559,1.556697,0.04891874,-0.5330866,1.496981,-0.1237854,-0.03798832,1.548464,-0.04123476,-0.5235415,1.461773,-0.1719793,-0.2793678,1.529122,0.2170997,-0.1733006,1.417906,NA,NA,NotTracked,Unknown,
-0.4594727,0.7817383,-0.6103516,0.8803711,-0.4130859,0.2275391,-2,-2,-6,0,-2,2,10,-3,2,2,-1,-2,2,-1,9,-1,-113.1875,-113.1875,-113.1875,7.375,7.375,7.375,6.987453,5.616871,4.638675,3.414943,3.327995,5.363449,-0.1066652,-0.49321,1.38717,0.04579862,-0.06424434,1.455046,0.04628622,0.2235805,1.600988,-0.06559654,-0.4479083,1.397846,0.08474675,-0.05874329,1.457,0.03977231,-0.2264509,1.556728,0.04864928,-0.5329566,1.496875,-0.1250239,-0.03831546,1.549522,-0.04173215,-0.523417,1.462416,-0.1719096,-0.2805154,1.529384,0.2177294,-0.1738664,1.416853,NA,NA,NotTracked,NotTracked,
-0.527832,0.8178711,0.1396484,0.9672852,-0.4750977,0.2817383,-34,15,3,0,-3,-9,-2,-9,2,-3,-1,-3,-15,-3,0,1,129.875,129.875,129.875,-0.0625,-0.0625,-0.0625,6.977339,5.685577,4.499933,3.358462,3.271075,5.428359,-0.1110117,-0.4981528,1.388483,0.0445392,-0.06401704,1.441964,0.04583128,0.2233817,1.600186,-0.06920988,-0.4505286,1.394308,0.08366388,-0.05719536,1.455378,0.03975217,-0.2264445,1.556637,0.04846537,-0.532802,1.496798,-0.1250811,-0.03834739,1.549647,-0.0419648,-0.5232676,1.462643,-0.1714329,-0.2833429,1.529031,0.2176222,-0.1738265,1.416586,NA,NA,NotTracked,NotTracked,
-0.1459961,0.5673828,0.487793,0.8955078,-0.4296875,0.206543,-13,-9,-30,-26,-9,-3,-12,-25,3,3,1,1,-1,0,4,1,102.5625,102.5625,102.5625,30.4375,30.4375,30.4375,7.003525,5.688454,4.431935,3.346389,3.246136,5.467015,-0.1234424,-0.5006769,1.386399,0.04845362,-0.06865252,1.429936,0.04572987,0.2234226,1.59975,-0.08579082,-0.4888181,1.366714,0.07165299,-0.05061386,1.444,0.03974143,-0.2264425,1.556634,0.04834927,-0.5327131,1.496896,-0.1250164,-0.03833529,1.549622,-0.04209781,-0.5231516,1.462814,-0.1713064,-0.2837572,1.529441,0.2173837,-0.1735515,1.416402,NA,NA,NotTracked,Unknown,
-0.3115234,0.8227539,0.2973633,0.8950195,-0.3115234,0.1938477,-8,8,11,5,-24,7,-15,-2,4,4,0,-1,-10,4,0,0,-34.75,-34.75,-34.75,14.25,14.25,14.25,6.942128,5.660078,4.25642,3.343523,3.224929,5.497162,-0.1298582,-0.5054916,1.387284,0.04113522,-0.05758024,1.407778,0.04577999,0.223086,1.598558,-0.0953914,-0.4886194,1.383849,0.03107198,-0.09450399,1.437333,0.03973643,-0.2264828,1.556576,0.04827286,-0.5327411,1.496938,-0.1222007,-0.03835503,1.54672,-0.04220486,-0.5231621,1.462772,-0.1709539,-0.2865821,1.529868,0.216187,-0.173828,1.417862,NA,NA,NotTracked,Unknown,
-0.2949219,0.7397461,0.5146484,0.9135742,-0.378418,0.2451172,-4,-12,-6,-2,-1,-7,1,-1,3,-1,-7,-5,-5,-5,2,3,16.875,16.875,16.875,6.9375,6.9375,6.9375,6.877278,5.669249,4.128358,3.328043,3.215919,5.52236,-0.1328067,-0.5065508,1.388917,0.03213989,-0.04614292,1.398881,0.04572956,0.2230435,1.598068,-0.09327378,-0.4925735,1.376504,0.02787016,-0.08465676,1.415417,0.03972591,-0.2265078,1.556532,0.04804775,-0.532844,1.497,-0.1220358,-0.03833314,1.546423,-0.04246601,-0.5232586,1.462804,-0.1711615,-0.2867126,1.530593,0.2162939,-0.1732737,1.417759,NA,NA,NotTracked,Unknown,
-0.215332,0.8549805,0.4077148,0.9116211,-0.378418,0.2583008,10,-2,-5,-3,-3,1,7,7,-6,-4,-7,-2,8,4,1,-2,-7.6875,-7.6875,-7.6875,17.8125,17.8125,17.8125,6.824366,5.677536,3.970699,3.342349,3.218301,5.5354,-0.1350534,-0.5081192,1.389189,0.01418133,-0.0339205,1.392379,0.04563539,0.2232372,1.597547,-0.09421445,-0.4958268,1.373431,-0.03209078,-0.03640345,1.373923,0.03972453,-0.2265278,1.556496,0.04789795,-0.5329734,1.497094,-0.1218978,-0.03827391,1.546225,-0.04270294,-0.5236136,1.463047,-0.1711926,-0.2875004,1.531169,0.2165474,-0.1727384,1.417581,NA,NA,NotTracked,Unknown,
-0.4492188,0.6777344,0.3833008,0.8969727,-0.3515625,0.25,-14,10,7,2,2,1,0,-4,-4,-4,-2,-3,-18,-2,0,-1,7.75,7.75,7.75,15.3125,15.3125,15.3125,6.778408,5.700482,3.870776,3.351888,3.218796,5.535102,-0.136796,-0.5080612,1.389452,-0.004430524,-0.01438232,1.388595,0.0454417,0.2233511,1.596933,-0.0955773,-0.4955634,1.37446,-0.04133641,-0.03248797,1.371421,0.03971105,-0.2265394,1.556436,0.04764763,-0.5331391,1.497163,-0.1218711,-0.03824551,1.546161,-0.04304411,-0.5240139,1.463338,-0.1713028,-0.2879259,1.531702,0.2165421,-0.1724609,1.417372,NA,NA,NotTracked,Unknown,
-0.3925781,0.6943359,0.3647461,0.8813477,-0.3730469,0.2290039,0,10,6,-1,0,-4,-13,-1,-2,-2,-1,-2,-5,-2,-2,-2,13.5625,13.5625,13.5625,3.125,3.125,3.125,6.739949,5.70736,3.749854,3.370399,3.219665,5.525573,-0.1391494,-0.5104401,1.391187,0.0119159,-0.02156209,1.365497,0.04480801,0.2234936,1.595521,-0.101458,-0.4972171,1.382119,-0.02640114,-0.03738961,1.346417,0.03962848,-0.2264908,1.556328,0.04711437,-0.533116,1.497373,-0.1268674,-0.03893293,1.550239,-0.04373037,-0.5243257,1.464329,-0.1719191,-0.288651,1.533664,0.2174746,-0.1733095,1.416588,NA,NA,NotTracked,Open,
-0.328125,0.7402344,0.3847656,0.8901367,-0.3706055,0.2358398,-4,-5,-3,-4,-3,-2,-5,-10,-2,-1,-1,-3,-10,-12,-1,0,-1.0625,-1.0625,-1.0625,2.4375,2.4375,2.4375,6.687418,5.678241,3.608771,3.387199,3.219932,5.510273,-0.1390392,-0.5103085,1.391428,0.01263809,-0.02207832,1.349284,0.04382598,0.2232195,1.594674,-0.09963416,-0.4958026,1.379407,-0.02873807,-0.0403071,1.329806,0.03956231,-0.2265143,1.556261,0.04684244,-0.5331904,1.497418,-0.1290795,-0.03927721,1.552159,-0.04404917,-0.5245837,1.46466,-0.172148,-0.2890052,1.534104,0.2184953,-0.1797786,1.41732,NA,NA,NotTracked,Open,
-0.3383789,0.7558594,0.3837891,0.8994141,-0.3706055,0.2358398,-3,-2,-6,-8,-1,2,-2,2,0,-2,-3,-1,4,-8,2,1,-18,-18,-18,2.625,2.625,2.625,6.647676,5.648265,3.533929,3.401693,3.218826,5.497732,-0.139004,-0.5105498,1.39308,0.02115781,-0.03274446,1.330654,0.04310131,0.2230668,1.594228,-0.1017395,-0.4963724,1.384028,-0.01131126,-0.05412281,1.306705,0.03946687,-0.22651,1.556194,0.04650819,-0.5330362,1.497481,-0.130226,-0.03936247,1.553222,-0.0443942,-0.5244403,1.465148,-0.1722919,-0.2898701,1.534774,0.2185104,-0.181566,1.417201,NA,NA,NotTracked,Open,
-0.3383789,0.7558594,0.3837891,0.9121094,-0.3696289,0.2241211,-3,-2,-6,-8,-1,2,-2,2,-5,-2,0,-2,-27,-30,-2,0,-18,-18,-18,5.1875,5.1875,5.1875,6.647676,5.648265,3.533929,3.409766,3.216816,5.491812,-0.1393472,-0.5108916,1.394221,0.03094316,-0.0487227,1.310158,0.04206372,0.2229083,1.593531,-0.1026249,-0.4959065,1.384705,-0.0008828883,-0.06903035,1.284541,0.03930547,-0.2264928,1.556284,0.04581036,-0.5328525,1.497603,-0.1313864,-0.03964453,1.554169,-0.04502077,-0.5244095,1.465805,-0.1727567,-0.2905217,1.535477,0.2189719,-0.1840543,1.416864,NA,NA,NotTracked,Unknown,
-0.1269531,0.7592773,0.1313477,0.9296875,-0.3276367,0.2128906,2,0,-3,-7,0,6,1,0,-2,-3,-3,-3,-1,6,2,-2,5.1875,5.1875,5.1875,4.0625,4.0625,4.0625,6.495461,5.353728,3.15397,3.432527,3.207258,5.475298,-0.1392741,-0.5111888,1.395297,0.04148082,-0.07138859,1.290553,0.04113419,0.2227861,1.593066,-0.1011529,-0.4962015,1.383579,0.01993923,-0.09884286,1.265064,0.03924344,-0.2264791,1.556278,0.04545252,-0.5325724,1.497667,-0.1319261,-0.03986873,1.554592,-0.0452342,-0.524208,1.466201,-0.1730696,-0.290662,1.535911,0.2388434,-0.2038779,1.429549,NA,NA,NotTracked,Unknown,
-0.5644531,0.4873047,0.1826172,0.9394531,-0.3964844,0.2348633,-9,-3,3,-3,-4,-6,-7,-9,-3,-3,-1,-1,-11,3,-1,-3,-4,-4,-4,-6.4375,-6.4375,-6.4375,6.476094,5.181064,3.032923,3.435742,3.199426,5.467409,-0.1391495,-0.5127223,1.397752,0.05538324,-0.1005087,1.275125,0.03992339,0.2230604,1.592852,-0.09904079,-0.4980781,1.379975,0.03840153,-0.1320124,1.251,0.03885491,-0.2263004,1.556555,0.04469714,-0.5317609,1.498228,-0.1419204,-0.04330872,1.565512,-0.04560584,-0.5237035,1.466894,-0.1736825,-0.2911453,1.536769,0.2400654,-0.2058111,1.429687,NA,NA,NotTracked,Closed,
-0.6044922,0.4541016,0.1298828,0.9038086,-0.4169922,0.2436523,-3,-9,-7,-6,-4,-2,0,-8,-2,-2,0,-1,-1,1,-1,-1,-15.3125,-15.3125,-15.3125,-0.1875,-0.1875,-0.1875,6.465017,5.084138,2.982845,3.437507,3.203831,5.460038,-0.1386858,-0.5114743,1.397423,0.07866576,-0.172948,1.252034,0.03803998,0.2236618,1.592549,-0.1008479,-0.4970134,1.382098,0.08403777,-0.129033,1.260036,0.03825288,-0.2260589,1.556754,0.04388949,-0.5311487,1.498875,-0.140121,-0.04322754,1.563025,-0.0459633,-0.5231854,1.46737,-0.1744726,-0.2919677,1.538074,0.2596044,-0.2183715,1.457116,NA,NA,NotTracked,Closed,
-0.5151367,0.3989258,-0.01904297,0.8896484,-0.3598633,0.2353516,24,10,6,5,-1,0,15,13,1,0,0,1,-2,3,-1,1,-15.6875,-15.6875,-15.6875,-13.875,-13.875,-13.875,6.457866,4.981568,2.934224,3.440461,3.198124,5.442179,-0.1385723,-0.5111859,1.39659,0.09039593,-0.2133296,1.247414,0.03682565,0.2240715,1.592095,-0.1041791,-0.4986025,1.371787,0.1063624,-0.1793201,1.23279,0.03784626,-0.2258259,1.556473,0.04341758,-0.5305753,1.498837,-0.1431308,-0.04397953,1.565746,-0.04630853,-0.5224326,1.467135,-0.1748295,-0.2921079,1.538429,0.2602541,-0.2178315,1.465896,NA,NA,NotTracked,Closed,
0.3930664,0.7719727,0.6435547,0.9057617,-0.3730469,0.2285156,-5,0,-3,-6,-3,-11,-20,-5,0,-1,-2,-1,-2,0,0,-1,-3.8125,-3.8125,-3.8125,-13.8125,-13.8125,-13.8125,6.502219,4.408186,2.740057,3.426813,3.193007,5.438782,-0.1389925,-0.5127167,1.399302,0.1171562,-0.3000618,1.2547,0.03463291,0.2246446,1.591856,-0.1004683,-0.4972485,1.380422,0.1237969,-0.2521425,1.242097,0.03715964,-0.2257151,1.556464,0.04253279,-0.5305305,1.499029,-0.1464645,-0.04507201,1.568473,-0.04701542,-0.5224198,1.467427,-0.1753981,-0.2925951,1.539396,0.2614591,-0.219548,1.491198,NA,NA,NotTracked,Unknown,
0.4926758,0.6831055,0.6362305,0.9145508,-0.3305664,0.2236328,-3,-8,-4,-2,0,4,2,4,0,-1,-1,-3,-1,1,-1,0,-3.1875,-3.1875,-3.1875,-12.25,-12.25,-12.25,6.522422,4.182831,2.672086,3.423564,3.183615,5.428294,-0.1390311,-0.5125228,1.399642,0.1318489,-0.3401314,1.264454,0.03344653,0.2249318,1.591446,-0.1002283,-0.4970632,1.377797,0.1318288,-0.2925909,1.247294,0.03668822,-0.2256919,1.556242,0.04161604,-0.5306774,1.498815,-0.1470449,-0.0451941,1.568837,-0.04770659,-0.5225108,1.467367,-0.1755723,-0.2928458,1.539577,0.2604521,-0.2278014,1.49822,NA,NA,NotTracked,Unknown,
0.4697266,0.574707,0.7739258,0.902832,-0.3408203,0.2285156,0,1,0,1,0,2,3,0,-1,-1,-2,-1,0,-2,-1,0,-7.9375,-7.9375,-7.9375,-17.1875,-17.1875,-17.1875,6.57786,3.847291,2.567066,3.411302,3.168363,5.411163,-0.1395501,-0.5150496,1.401289,0.1453241,-0.3792554,1.278419,0.03254255,0.2250515,1.591217,-0.1017667,-0.4989731,1.384701,0.1569496,-0.3590625,1.24875,0.03599105,-0.2256898,1.556098,0.03988873,-0.5309079,1.498664,-0.1476746,-0.04522426,1.569459,-0.04921466,-0.522624,1.467403,-0.1759491,-0.2931606,1.540029,0.2601346,-0.2353796,1.505475,NA,NA,NotTracked,Unknown,
0.2216797,0.550293,-0.3203125,0.8950195,-0.3286133,0.2387695,-4,-3,-3,-2,-2,1,1,3,0,-1,-1,-2,-1,0,-1,1,-6.9375,-6.9375,-6.9375,-9.5,-9.5,-9.5,6.61123,3.733327,2.519038,3.409962,3.158055,5.399181,-0.1387688,-0.5161194,1.40441,0.1831809,-0.4436178,1.319917,0.03155784,0.2254074,1.590813,-0.1009059,-0.4997124,1.390406,0.1833019,-0.4314427,1.280543,0.03465753,-0.2256224,1.555494,0.03715101,-0.5311854,1.497938,-0.1484894,-0.04530692,1.569854,-0.05218298,-0.5223137,1.466892,-0.1765087,-0.2934823,1.540191,0.2592911,-0.2595697,1.516222,NA,NA,NotTracked,Unknown,
1.497559,0.5341797,0.9501953,0.9135742,-0.3100586,0.2231445,-4,-4,-2,-3,-1,-2,1,-3,-1,-1,-1,-1,-1,0,-2,-2,1.0625,1.0625,1.0625,-5.6875,-5.6875,-5.6875,6.702696,3.38659,2.376792,3.413627,3.141557,5.388408,-0.1394397,-0.5175496,1.406085,0.1962348,-0.4731035,1.357737,0.03093941,0.2255712,1.590516,-0.1010042,-0.5075801,1.38803,0.2280131,-0.4348225,1.345582,0.03442612,-0.2256573,1.555317,0.03684631,-0.5312411,1.4978,-0.1487312,-0.04535713,1.569907,-0.05260229,-0.5221938,1.466817,-0.1766663,-0.2935851,1.540278,0.2578222,-0.2677312,1.518531,NA,NA,NotTracked,Unknown,
0.6425781,0.4458008,-0.1914063,0.9462891,-0.3144531,0.1782227,-1,-1,1,1,0,-4,1,-3,0,0,-1,-2,0,-1,-3,-1,19.25,19.25,19.25,0.75,0.75,0.75,6.872008,3.174229,2.207616,3.399779,3.107645,5.398641,-0.1401349,-0.5210869,1.408616,0.2210926,-0.4990377,1.366552,0.03049128,0.2256722,1.590237,-0.1011311,-0.5152676,1.387444,0.2425734,-0.4962762,1.357061,0.03433161,-0.2256921,1.555224,0.03678419,-0.5313159,1.497804,-0.1490787,-0.04522451,1.570156,-0.05265111,-0.5221964,1.466814,-0.1767625,-0.2938236,1.540371,0.2562678,-0.2763429,1.519897,NA,NA,NotTracked,Unknown,
0.6425781,0.4458008,-0.1914063,0.9462891,-0.3144531,0.1782227,-1,-1,1,1,0,-4,1,-3,0,0,-1,-2,0,-1,-3,-1,19.25,19.25,19.25,0.75,0.75,0.75,6.872008,3.174229,2.207616,3.399779,3.107645,5.398641,-0.1414232,-0.5293652,1.409003,0.2342037,-0.5283993,1.388808,0.03035516,0.2256706,1.590184,-0.1048097,-0.5108382,1.398435,0.2607638,-0.5213841,1.383078,0.03433521,-0.2257702,1.555234,0.03702902,-0.5317391,1.498012,-0.1493555,-0.04528239,1.570354,-0.05240708,-0.5225046,1.467024,-0.1768995,-0.2937937,1.540505,0.2552896,-0.2892167,1.521329,NA,NA,NotTracked,NotTracked,
1.743652,0.5200195,0.128418,0.9560547,-0.3129883,0.1611328,-3,-1,-2,-2,-3,0,2,-3,0,-2,-1,-1,0,0,-2,-2,31.5,31.5,31.5,12.9375,12.9375,12.9375,7.309323,2.923195,1.786568,3.389099,3.085958,5.421255,-0.1434494,-0.5334429,1.410243,0.2459295,-0.5501199,1.409808,0.03031086,0.2257004,1.590058,-0.1065336,-0.5190643,1.396884,0.2735076,-0.5375893,1.400868,0.03435083,-0.2258662,1.555244,0.0374432,-0.5322883,1.498351,-0.1496358,-0.04531674,1.570533,-0.0518838,-0.5231295,1.467423,-0.1772626,-0.2935696,1.540811,0.2547415,-0.2950071,1.522814,NA,NA,NotTracked,NotTracked,
0.7583008,0.3491211,-0.4980469,0.9462891,-0.2910156,0.1469727,-2,-1,-1,0,-3,-11,-4,-2,1,-1,-1,-1,-2,-2,-2,0,24.75,24.75,24.75,21.4375,21.4375,21.4375,7.562397,2.879419,1.544368,3.388429,3.071285,5.444974,-0.1448809,-0.5366296,1.410431,0.2538368,-0.5763807,1.427899,0.03027078,0.2257604,1.589833,-0.106904,-0.5198669,1.398868,0.285314,-0.558735,1.418708,0.03434686,-0.2259022,1.555234,0.0377157,-0.5327194,1.498585,-0.149741,-0.04534173,1.570584,-0.05158219,-0.5235279,1.467668,-0.177387,-0.2935989,1.540908,0.2544362,-0.2992046,1.525928,NA,NA,NotTracked,NotTracked,
1.68457,0.3959961,0.3759766,0.9394531,-0.2773438,0.1650391,-3,-1,-1,-2,-2,0,5,-2,-2,-3,0,0,-2,-2,1,-1,-14.9375,-14.9375,-14.9375,14.625,14.625,14.625,7.719275,2.820675,1.375994,3.386403,3.060005,5.467167,-0.1466768,-0.5386821,1.413886,0.2574763,-0.5809667,1.446558,0.03027422,0.225796,1.589742,-0.1075295,-0.5286816,1.397375,0.2913028,-0.5675498,1.436666,0.03432733,-0.2260539,1.55541,0.03795655,-0.5333134,1.499466,-0.1500279,-0.04533719,1.570967,-0.05129235,-0.524129,1.468588,-0.1778361,-0.2938082,1.54146,0.2555189,-0.30217,1.531944,NA,NA,NotTracked,NotTracked,
0.8608398,0.1064453,0.3256836,0.9379883,-0.3027344,0.1821289,0,1,-3,1,-2,3,-4,0,-1,-1,-1,-1,-1,-2,-2,-2,13.0625,13.0625,13.0625,2.75,2.75,2.75,7.634422,2.781579,1.459948,3.368355,3.049201,5.492433,-0.1502656,-0.5423257,1.415071,0.2506253,-0.5793228,1.461805,0.0303526,0.2261747,1.588928,-0.1114528,-0.5298564,1.402364,0.2870718,-0.5677709,1.459857,0.03429098,-0.2261708,1.555522,0.03792149,-0.5338085,1.500492,-0.1505283,-0.04529925,1.5714,-0.05129253,-0.5244983,1.469401,-0.1787825,-0.2938272,1.542676,0.2581885,-0.3022653,1.545426,NA,NA,NotTracked,NotTracked,
0.4443359,0.2451172,0.3261719,0.9287109,-0.3120117,0.1889648,1,0,-1,0,3,6,3,-1,-2,-1,-3,-1,-2,-2,-1,-1,21.0625,21.0625,21.0625,1.25,1.25,1.25,7.279484,2.790186,1.84198,3.347806,3.039381,5.515776,-0.1524874,-0.5422124,1.417125,0.2504154,-0.5696172,1.463568,0.03043642,0.2263207,1.588632,-0.1131561,-0.5371821,1.397088,0.2845061,-0.5525316,1.466933,0.03430274,-0.2262372,1.555598,0.03792483,-0.5339737,1.500988,-0.1506864,-0.04524535,1.57154,-0.0512841,-0.5247462,1.469913,-0.1797976,-0.2941184,1.543635,0.2600167,-0.3019501,1.553096,NA,NA,NotTracked,NotTracked,
0.8325195,0.3774414,0.1347656,0.9199219,-0.2880859,0.1738281,2,0,-1,-1,-2,-1,-1,-2,0,-2,-3,-2,-1,-2,-2,-1,0.8125,0.8125,0.8125,1.6875,1.6875,1.6875,7.113451,2.826864,2.017177,3.330459,3.028985,5.536524,-0.1536971,-0.542914,1.419323,0.2468345,-0.5778751,1.461363,0.03053058,0.2262081,1.588315,-0.1134018,-0.5455148,1.394333,0.2843231,-0.5704801,1.47,0.03430573,-0.2263311,1.55578,0.03793784,-0.5341508,1.501692,-0.1510376,-0.04517186,1.57195,-0.0512693,-0.5249467,1.470706,-0.1808396,-0.2945125,1.544845,0.2613928,-0.3017263,1.556981,NA,NA,NotTracked,NotTracked,
0.8574219,0.3447266,0.1074219,0.9477539,-0.2792969,0.1743164,-3,1,0,-1,0,2,-2,-1,6,5,-1,1,-1,0,0,-2,-13.375,-13.375,-13.375,-4.8125,-4.8125,-4.8125,7.061858,2.859185,2.056294,3.306061,3.013128,5.558093,-0.1585319,-0.5478991,1.42155,0.2469724,-0.5751704,1.45768,0.03086041,0.2262239,1.587112,-0.118232,-0.5350023,1.415175,0.2823562,-0.5639574,1.455255,0.03415193,-0.2264778,1.55611,0.03771111,-0.5344487,1.502706,-0.1515144,-0.04499412,1.572444,-0.05148932,-0.5252247,1.471755,-0.1824746,-0.2950879,1.545766,0.2624061,-0.3017304,1.560542,NA,NA,NotTracked,NotTracked,
0.9335938,0.2446289,0.09521484,0.9584961,-0.2807617,0.1708984,1,-1,1,1,0,0,1,1,-1,-2,-1,-2,-1,1,-1,0,-10.125,-10.125,-10.125,-6.1875,-6.1875,-6.1875,7.052571,2.890944,2.047655,3.298537,3.009879,5.56277,-0.1599781,-0.5489802,1.421892,0.2473466,-0.5773422,1.453233,0.03107408,0.2262055,1.586709,-0.1201928,-0.5319859,1.423615,0.2855644,-0.5658867,1.460141,0.03404584,-0.2265833,1.556366,0.03766144,-0.5345893,1.50308,-0.1516309,-0.04497435,1.572499,-0.05153475,-0.5253664,1.472101,-0.1829839,-0.2953061,1.546055,0.2624545,-0.3018574,1.560797,NA,NA,NotTracked,NotTracked,
0.9570313,0.234375,0.1069336,0.9887695,-0.2875977,0.1601563,0,-1,0,0,-1,-1,-2,-1,1,1,-1,-2,1,-2,-2,-2,-10.1875,-10.1875,-10.1875,-0.8125,-0.8125,-0.8125,7.048789,2.902905,2.04523,3.28784,3.004069,5.571707,-0.1618843,-0.5497252,1.422926,0.2469815,-0.5734096,1.449586,0.03123588,0.226071,1.58658,-0.1218341,-0.5389208,1.419968,0.2859134,-0.5546793,1.456167,0.03381623,-0.2268213,1.556719,0.03743559,-0.5348919,1.503648,-0.151729,-0.04495246,1.572608,-0.05173578,-0.5256485,1.472644,-0.1837336,-0.2954082,1.546642,0.2624721,-0.3021941,1.560811,NA,NA,NotTracked,NotTracked,
0.9916992,0.2763672,0.1103516,0.9536133,-0.2680664,0.1484375,-1,-1,-3,-2,-1,-1,0,0,-3,-2,-3,-1,-1,-1,0,0,-16.1875,-16.1875,-16.1875,3.375,3.375,3.375,7.047488,2.933708,2.031895,3.296714,3.003725,5.567458,-0.1624115,-0.5497334,1.424102,0.2464687,-0.563188,1.444183,0.03147334,0.2260672,1.58631,-0.1208376,-0.537958,1.41502,0.2853429,-0.5459421,1.451385,0.03375082,-0.226955,1.556992,0.03739376,-0.5349843,1.503944,-0.1519288,-0.04492048,1.57283,-0.05176616,-0.5257159,1.472807,-0.1841219,-0.2955016,1.547029,0.2624317,-0.3023561,1.560725,NA,NA,NotTracked,NotTracked,
0.9941406,0.3110352,0.1005859,0.9311523,-0.2685547,0.1474609,0,1,-1,-1,-1,1,1,-1,-3,-1,-1,0,-1,0,-1,0,-53.6875,-53.6875,-53.6875,-1.4375,-1.4375,-1.4375,7.003125,2.978796,2.027243,3.307867,3.009681,5.55493,-0.1631258,-0.5498254,1.42372,0.2421333,-0.5499201,1.429804,0.03174473,0.2261491,1.586235,-0.1222369,-0.534813,1.419245,0.280371,-0.5387942,1.4329,0.03350009,-0.2271376,1.557572,0.03713533,-0.5351468,1.504272,-0.1520682,-0.04489778,1.573016,-0.05198902,-0.5258164,1.472989,-0.1847219,-0.2954637,1.547429,0.2616391,-0.3022991,1.559299,NA,NA,NotTracked,NotTracked,
0.9511719,0.2114258,0.1005859,0.9228516,-0.296875,0.1665039,-2,0,-1,-1,-1,1,-1,0,-2,-3,0,-2,-1,-1,0,0,-41.875,-41.875,-41.875,-5.5,-5.5,-5.5,6.907174,3.021122,2.070598,3.318527,3.018034,5.538153,-0.1623252,-0.5464903,1.423194,0.2388509,-0.5463016,1.419215,0.03196317,0.2261469,1.586302,-0.1227705,-0.5393335,1.403636,0.2753697,-0.5405973,1.418375,0.03333043,-0.2272199,1.557791,0.03700529,-0.5352402,1.504377,-0.1521836,-0.04480543,1.573179,-0.05208025,-0.5258492,1.473011,-0.1850485,-0.2954715,1.547693,0.2605813,-0.3020773,1.557367,NA,NA,NotTracked,NotTracked,
0.9326172,0.2319336,0.1142578,0.9306641,-0.2978516,0.1723633,-1,-2,-1,-2,-2,-1,-1,-4,0,-1,-2,-1,-1,-2,1,-3,-10.5625,-10.5625,-10.5625,-2.125,-2.125,-2.125,6.841748,3.067037,2.11895,3.328351,3.027031,5.524111,-0.1608334,-0.5455495,1.422759,0.2365201,-0.5393033,1.410271,0.03223811,0.2260801,1.586412,-0.1178287,-0.5434727,1.402353,0.2704132,-0.5287292,1.40735,0.03325817,-0.2272957,1.557921,0.03681482,-0.5353139,1.504426,-0.1523052,-0.04471903,1.573328,-0.05223737,-0.525867,1.472994,-0.185239,-0.295444,1.547802,0.2592731,-0.3014336,1.554563,NA,NA,NotTracked,NotTracked,
0.9316406,0.2880859,0.1450195,0.9487305,-0.2919922,0.1616211,-1,0,0,0,-1,-2,-1,0,-4,-1,0,0,-1,0,1,0,12.375,12.375,12.375,-1.125,-1.125,-1.125,6.77817,3.132603,2.195587,3.334023,3.034121,5.516818,-0.1601951,-0.5460449,1.422652,0.2345815,-0.532842,1.400785,0.03274626,0.2260265,1.586915,-0.1181415,-0.5422083,1.399948,0.2573517,-0.5223706,1.382797,0.03310064,-0.2273012,1.558123,0.03647301,-0.5353553,1.504521,-0.1523771,-0.04461582,1.573553,-0.05255815,-0.5258522,1.473042,-0.1854191,-0.2952685,1.547917,0.2582251,-0.3006842,1.552513,NA,NA,NotTracked,NotTracked,
0.894043,0.3120117,0.1625977,0.949707,-0.2817383,0.1411133,-4,-4,-3,-2,0,-1,-2,-2,2,2,-2,-2,-1,-2,-1,-2,6.0625,6.0625,6.0625,2,2,2,6.744199,3.183004,2.253124,3.334926,3.043379,5.516675,-0.159382,-0.5452811,1.420468,0.2278751,-0.5252292,1.387034,0.03358846,0.2258152,1.587804,-0.1205627,-0.5325043,1.409993,0.2487953,-0.5236545,1.362119,0.03273845,-0.2273566,1.558561,0.03570046,-0.5353591,1.50449,-0.1525672,-0.04433515,1.573886,-0.05341911,-0.5255881,1.472915,-0.1855624,-0.2951054,1.548018,0.2565691,-0.299477,1.546832,NA,NA,NotTracked,NotTracked,
0.8574219,0.3178711,0.1635742,0.9423828,-0.284668,0.1503906,-3,-1,-1,1,-1,-1,0,1,-4,-5,-1,-1,-1,-1,-2,-1,-10,-10,-10,-0.1875,-0.1875,-0.1875,6.726801,3.204776,2.264797,3.332564,3.054279,5.520314,-0.1588806,-0.5443237,1.419991,0.22549,-0.5202821,1.383204,0.03403655,0.2259225,1.588228,-0.1213942,-0.5330979,1.39995,0.2436422,-0.5195432,1.356,0.03257541,-0.2273351,1.558746,0.0353041,-0.5353642,1.50441,-0.1526776,-0.0442243,1.574173,-0.05381207,-0.5255142,1.472803,-0.1856164,-0.2949685,1.548038,0.2558562,-0.2987624,1.544485,NA,NA,NotTracked,NotTracked,
0.8847656,0.269043,0.1489258,0.9428711,-0.293457,0.1499023,0,-1,-1,1,0,-1,-1,0,-2,-2,0,1,-1,0,0,-1,-15,-15,-15,-0.625,-0.625,-0.625,6.709894,3.212225,2.263781,3.322756,3.059768,5.528689,-0.1579698,-0.5431469,1.417276,0.2231856,-0.5184682,1.378101,0.03509409,0.2256298,1.589548,-0.1583865,-0.5427042,1.378571,0.2541716,-0.5255865,1.375083,0.03223703,-0.2273724,1.55906,0.03439989,-0.5353545,1.50415,-0.1530202,-0.04410877,1.575082,-0.05476509,-0.5252838,1.472427,-0.1856832,-0.2948108,1.548155,0.2545068,-0.2973523,1.541024,NA,NA,NotTracked,NotTracked,
0.8891602,0.2641602,0.1621094,0.9492188,-0.2993164,0.1533203,0,-2,-3,2,0,0,0,-1,0,1,0,0,0,-1,0,0,3.375,3.375,3.375,0.375,0.375,0.375,6.704341,3.205965,2.267748,3.318786,3.062073,5.533229,-0.1575479,-0.542556,1.416109,0.222836,-0.5191259,1.377507,0.03554308,0.2255901,1.59026,-0.1908779,-0.5465971,1.410318,0.2447355,-0.5103235,1.35831,0.03215985,-0.2273871,1.559182,0.03415677,-0.5353125,1.504059,-0.1530698,-0.04394878,1.575484,-0.05501373,-0.5251899,1.47235,-0.1857565,-0.2947044,1.548219,0.2540195,-0.2973112,1.540069,NA,NA,NotTracked,NotTracked,
0.8955078,0.3168945,0.1513672,0.9296875,-0.2871094,0.1572266,0,-1,-1,-1,-2,-1,-3,-1,-2,0,-4,1,1,-1,-1,-3,7.0625,7.0625,7.0625,2.4375,2.4375,2.4375,6.722966,3.193118,2.25719,3.31706,3.065538,5.539104,-0.1574838,-0.5430921,1.415896,0.2238881,-0.5199299,1.379942,0.03589708,0.2253109,1.590614,-0.1603698,-0.5459393,1.378182,0.2554532,-0.5269529,1.380333,0.03205427,-0.2273884,1.559405,0.03400384,-0.5352987,1.503996,-0.1530359,-0.04380846,1.575817,-0.05516437,-0.5251358,1.472299,-0.1858768,-0.2943774,1.548316,0.2538496,-0.297341,1.539425,NA,NA,NotTracked,NotTracked,
0.8979492,0.3183594,0.1586914,0.934082,-0.2871094,0.1621094,-1,-1,-1,0,1,0,-2,-1,1,1,-2,0,-1,0,-1,1,2.125,2.125,2.125,1.0625,1.0625,1.0625,6.73991,3.173249,2.242868,3.312281,3.063271,5.545969,-0.1572289,-0.5430909,1.417019,0.225044,-0.5214339,1.382943,0.03600238,0.2252983,1.591115,-0.1918164,-0.5514517,1.41275,0.2498507,-0.5124784,1.368638,0.03191699,-0.2274085,1.559664,0.03379491,-0.5353145,1.503983,-0.1531072,-0.04375563,1.576241,-0.05537977,-0.5250934,1.472267,-0.1859092,-0.2943905,1.548347,0.2536848,-0.2974753,1.539064,NA,NA,NotTracked,NotTracked,
0.8979492,0.3183594,0.1586914,0.934082,-0.2871094,0.1621094,-1,-1,-1,0,1,0,-2,-1,1,1,-2,0,-1,0,-1,1,2.125,2.125,2.125,1.0625,1.0625,1.0625,6.73991,3.173249,2.242868,3.312281,3.063271,5.545969,-0.1572701,-0.5420848,1.416684,0.2270228,-0.522292,1.385573,0.0361319,0.2252552,1.591384,-0.1957034,-0.5455398,1.417727,0.2510488,-0.5106254,1.372946,0.03187594,-0.2273847,1.55971,0.03366574,-0.5352427,1.503868,-0.1531357,-0.04359299,1.576614,-0.05549268,-0.5250189,1.472169,-0.1859781,-0.2942221,1.54835,0.2536187,-0.2974635,1.538797,NA,NA,NotTracked,NotTracked,
0.8999023,0.3222656,0.1650391,0.9326172,-0.2939453,0.1650391,-1,-2,-3,-1,-1,-1,-2,-1,0,0,-2,-1,-1,-1,1,0,0.25,0.25,0.25,2.8125,2.8125,2.8125,6.761343,3.147584,2.220112,3.306967,3.058947,5.554127,-0.1577181,-0.5424016,1.416678,0.229913,-0.5235715,1.389168,0.03622387,0.225157,1.59152,-0.1958783,-0.5406779,1.418133,0.251584,-0.5178525,1.371781,0.03177156,-0.2274034,1.559855,0.03351247,-0.5352362,1.503847,-0.153159,-0.04347003,1.576919,-0.05563831,-0.5249786,1.472156,-0.1861525,-0.293957,1.548517,0.2535211,-0.2976077,1.538712,NA,NA,NotTracked,NotTracked,
0.9077148,0.3227539,0.1567383,0.9321289,-0.2885742,0.1572266,-1,0,-1,0,1,-1,0,-1,-1,0,0,-1,-1,-1,-1,0,-1.875,-1.875,-1.875,0.125,0.125,0.125,6.805537,3.107522,2.168396,3.300799,3.051258,5.563996,-0.158233,-0.5430062,1.417706,0.2325696,-0.5256897,1.393873,0.03633986,0.2251396,1.591794,-0.1946381,-0.5485451,1.414309,0.2573588,-0.5108656,1.383439,0.03165573,-0.2273687,1.56001,0.03334871,-0.5352097,1.50385,-0.1532638,-0.04343636,1.577178,-0.0558014,-0.52494,1.472197,-0.1861899,-0.2938348,1.548621,0.253523,-0.2976103,1.538721,NA,NA,NotTracked,NotTracked,
0.9145508,0.3251953,0.1557617,0.9423828,-0.3022461,0.1591797,-3,-2,-3,-1,-1,0,0,-1,-4,-1,-2,-2,0,-1,-1,-1,-1.3125,-1.3125,-1.3125,-2.4375,-2.4375,-2.4375,6.843206,3.081623,2.126466,3.295262,3.04543,5.567737,-0.159382,-0.5437306,1.41974,0.2388038,-0.5286714,1.404112,0.03651173,0.2251364,1.592449,-0.192672,-0.5450293,1.411316,0.2641062,-0.518021,1.394,0.03152062,-0.2274361,1.560522,0.03318738,-0.5352303,1.503978,-0.15357,-0.04337643,1.577925,-0.05594261,-0.5249692,1.472336,-0.186527,-0.2939372,1.54883,0.2537251,-0.2978333,1.53949,NA,NA,NotTracked,NotTracked,
0.9228516,0.3339844,0.1464844,0.9418945,-0.2983398,0.168457,-1,1,1,1,0,-2,-2,-1,-2,-1,-2,-2,-2,-2,0,-2,-4.0625,-4.0625,-4.0625,-1.5625,-1.5625,-1.5625,6.879669,3.060037,2.083511,3.293727,3.040013,5.567507,-0.1607159,-0.5442626,1.420834,0.240711,-0.5320826,1.407578,0.03658005,0.2250787,1.592879,-0.1942525,-0.5411539,1.413307,0.2640944,-0.519635,1.393833,0.03152579,-0.2274615,1.560665,0.03318943,-0.5352391,1.503987,-0.1536422,-0.04343642,1.578068,-0.05593684,-0.5249926,1.472342,-0.1868367,-0.2935992,1.54935,0.2538814,-0.2980395,1.540192,NA,NA,NotTracked,NotTracked,
0.9394531,0.3217773,0.140625,0.9404297,-0.2978516,0.1645508,0,1,-4,0,0,0,0,0,-2,-4,0,0,-1,-2,1,-3,-4.4375,-4.4375,-4.4375,-2.8125,-2.8125,-2.8125,6.919435,3.036894,2.032161,3.293366,3.035077,5.564701,-0.1609193,-0.544776,1.421053,0.2431302,-0.5328264,1.409771,0.03666307,0.2250962,1.59316,-0.1930034,-0.5453193,1.412149,0.2687636,-0.5185352,1.398413,0.03150273,-0.2275034,1.560825,0.0331656,-0.535254,1.504018,-0.1536583,-0.04344843,1.578107,-0.05595283,-0.5250125,1.47236,-0.1869707,-0.2935511,1.549469,0.2540046,-0.2985677,1.541045,NA,NA,NotTracked,NotTracked,
0.9335938,0.3237305,0.1357422,0.9321289,-0.3007813,0.1513672,1,0,0,0,-1,-1,2,1,-2,-2,-3,-2,-2,-3,-2,-2,-7.1875,-7.1875,-7.1875,-5.375,-5.375,-5.375,6.931298,3.030562,2.01137,3.28954,3.030067,5.560867,-0.1618056,-0.5451069,1.422596,0.2448558,-0.5383889,1.413089,0.03677765,0.2248897,1.593427,-0.1979537,-0.5475963,1.417147,0.263126,-0.5473067,1.380692,0.03139191,-0.227548,1.561131,0.03308639,-0.535283,1.504158,-0.1538357,-0.04350019,1.578349,-0.05598605,-0.52504,1.47241,-0.1872859,-0.2936524,1.549641,0.2544125,-0.2993253,1.543012,NA,NA,NotTracked,NotTracked,
0.9228516,0.3110352,0.1533203,0.9462891,-0.3017578,0.1601563,0,0,0,1,-3,1,-3,-2,-2,-1,0,-2,-1,-1,-1,-2,-4.8125,-4.8125,-4.8125,-5.4375,-5.4375,-5.4375,6.920913,3.03083,2.010524,3.279987,3.027769,5.564117,-0.1612641,-0.5448213,1.42303,0.2453639,-0.538725,1.413996,0.03683011,0.2248262,1.593636,-0.1937517,-0.5454947,1.413833,0.2669481,-0.5249802,1.397,0.03133528,-0.2275384,1.561276,0.03303833,-0.5352655,1.504217,-0.1538391,-0.04344712,1.578387,-0.05601722,-0.5250069,1.472419,-0.1874289,-0.2935564,1.549829,0.2546992,-0.2993878,1.544059,NA,NA,NotTracked,NotTracked,
0.9199219,0.3212891,0.1494141,0.949707,-0.2905273,0.1577148,-2,1,0,0,5,18,0,0,0,1,-2,-1,-3,-5,-2,-2,-2,-2,-2,-2.875,-2.875,-2.875,6.909184,3.034948,2.019372,3.273699,3.025854,5.56649,-0.1609419,-0.542093,1.424661,0.2448819,-0.5389736,1.414564,0.03695747,0.2247531,1.593947,-0.1978622,-0.5457398,1.421718,0.2681991,-0.5304301,1.398252,0.03126093,-0.2275421,1.56157,0.03305236,-0.535266,1.504314,-0.1538861,-0.04339941,1.578499,-0.05600842,-0.5249982,1.47244,-0.1876932,-0.2933398,1.549971,0.2548863,-0.2997232,1.545855,NA,NA,NotTracked,NotTracked,
0.9179688,0.3198242,0.1416016,0.9472656,-0.2841797,0.1635742,0,-1,-1,0,0,-1,4,-1,0,-2,-2,0,-1,0,-2,-1,-1.8125,-1.8125,-1.8125,-5.125,-5.125,-5.125,6.893188,3.041074,2.033675,3.278614,3.028125,5.555173,-0.1604823,-0.5421917,1.425713,0.2438398,-0.5391724,1.414807,0.03707638,0.2247599,1.594225,-0.1951829,-0.5469853,1.419205,0.270505,-0.5163584,1.408267,0.03119761,-0.2274963,1.561906,0.03309054,-0.5352331,1.50452,-0.1539024,-0.04340914,1.578572,-0.0559782,-0.5249675,1.472528,-0.1877587,-0.293311,1.550094,0.2549777,-0.2998845,1.546648,NA,NA,NotTracked,NotTracked,
0.9165039,0.331543,0.1401367,0.9448242,-0.2929688,0.1503906,0,-3,0,0,-2,-5,0,-1,-3,0,-1,-1,-1,0,-1,-3,5.8125,5.8125,5.8125,-2.3125,-2.3125,-2.3125,6.875827,3.053938,2.058817,3.281675,3.032485,5.547793,-0.1598387,-0.5419585,1.424216,0.2427395,-0.5385407,1.413478,0.03713038,0.2247226,1.594257,-0.1954634,-0.5437943,1.419597,0.264592,-0.5347994,1.394,0.03114169,-0.2274955,1.562038,0.03308254,-0.5352353,1.504564,-0.1538977,-0.04339563,1.578589,-0.05598211,-0.5249615,1.472545,-0.1877918,-0.2932747,1.550138,0.2549237,-0.299869,1.547238,NA,NA,NotTracked,NotTracked,
0.9204102,0.2973633,0.1357422,0.9428711,-0.2875977,0.1567383,0,-1,-3,-2,-1,-1,1,0,0,1,1,0,-1,-1,0,1,-4.5,-4.5,-4.5,0.4375,0.4375,0.4375,6.850442,3.062273,2.082209,3.291692,3.037487,5.537547,-0.1592005,-0.5401769,1.423033,0.2393975,-0.536576,1.411673,0.03726958,0.2246345,1.594402,-0.1962641,-0.5509645,1.43275,0.2680132,-0.5134389,1.408455,0.0311256,-0.2275435,1.562198,0.03311035,-0.535251,1.504592,-0.1539885,-0.04343035,1.578616,-0.05595311,-0.5249689,1.472509,-0.1878532,-0.2933137,1.550182,0.2547561,-0.2999146,1.547984,NA,NA,NotTracked,NotTracked,
0.9140625,0.2861328,0.1313477,0.9365234,-0.2827148,0.1582031,-1,0,0,-1,1,-2,0,-1,-2,-2,-2,-2,-2,-1,-3,-2,4.4375,4.4375,4.4375,-0.25,-0.25,-0.25,6.824823,3.067553,2.110902,3.311258,3.046285,5.517245,-0.1585714,-0.5407072,1.422062,0.2380418,-0.5335051,1.41198,0.03732086,0.2245518,1.594485,-0.1947502,-0.5450867,1.425606,0.2659702,-0.5226604,1.401465,0.03114767,-0.2275796,1.562284,0.03313219,-0.5352517,1.504616,-0.154007,-0.04342895,1.578633,-0.05593569,-0.5249686,1.472502,-0.1878575,-0.2933136,1.550184,0.254668,-0.2999326,1.548098,NA,NA,NotTracked,NotTracked,
0.9238281,0.328125,0.1313477,0.9423828,-0.2788086,0.1616211,1,-2,-2,-1,-1,-1,1,-1,-2,2,1,-1,0,-2,-2,-2,2.375,2.375,2.375,1.875,1.875,1.875,6.816515,3.074719,2.130136,3.322713,3.049727,5.506856,-0.1580212,-0.5386645,1.421056,0.2367671,-0.5334824,1.41032,0.03739264,0.2245712,1.594508,-0.1900834,-0.5510118,1.415265,0.2633924,-0.5124105,1.404982,0.03118528,-0.2276197,1.562309,0.03320789,-0.5352654,1.504603,-0.1540055,-0.04343055,1.578632,-0.05584088,-0.5249759,1.47238,-0.187867,-0.293303,1.550166,0.254451,-0.2997356,1.548264,NA,NA,NotTracked,NotTracked,
0.9238281,0.328125,0.1313477,0.9423828,-0.2788086,0.1616211,1,-2,-2,-1,-1,-1,1,-1,-2,2,1,-1,0,-2,-2,-2,2.375,2.375,2.375,1.875,1.875,1.875,6.816515,3.074719,2.130136,3.322713,3.049727,5.506856,-0.157777,-0.5391971,1.422062,0.2361805,-0.5336295,1.410935,0.03747983,0.2244534,1.594634,-0.1946307,-0.5451025,1.427335,0.2673554,-0.5501302,1.413615,0.03118881,-0.2276503,1.562389,0.03325203,-0.5352763,1.50464,-0.1540715,-0.04340443,1.578712,-0.05581669,-0.5249783,1.472373,-0.1878993,-0.2932089,1.550221,0.254259,-0.2995725,1.548498,NA,NA,NotTracked,NotTracked,
0.9130859,0.3041992,0.125,0.9384766,-0.2856445,0.1499023,-3,-1,-1,-3,-1,-2,-5,-1,0,-1,-1,-2,-2,-1,-2,-1,-0.9375,-0.9375,-0.9375,3.125,3.125,3.125,6.805969,3.077228,2.140821,3.333074,3.051379,5.499043,-0.1571619,-0.5392088,1.420326,0.2349841,-0.5326905,1.408878,0.03749042,0.2244366,1.594643,-0.1628439,-0.5425283,1.387545,0.2613468,-0.5237291,1.399683,0.03118745,-0.2276502,1.562408,0.03325856,-0.5352623,1.504645,-0.1540863,-0.04340433,1.578725,-0.05580584,-0.5249429,1.472345,-0.1879098,-0.2931481,1.550189,0.2541497,-0.2994819,1.548593,NA,NA,NotTracked,NotTracked,
0.9174805,0.3046875,0.1318359,0.9404297,-0.2792969,0.1367188,1,-2,-1,-3,-1,0,4,-1,-2,-3,0,-2,0,0,-1,-2,3.375,3.375,3.375,2.5625,2.5625,2.5625,6.803255,3.077592,2.147205,3.332727,3.049041,5.502037,-0.1568995,-0.5398407,1.420404,0.2345781,-0.5326864,1.409539,0.0375398,0.2244509,1.594675,-0.1928991,-0.5506135,1.427286,0.2654935,-0.5338695,1.408867,0.03118046,-0.2276359,1.562471,0.03328315,-0.535244,1.50467,-0.1540851,-0.04336985,1.578787,-0.05578287,-0.5249227,1.472348,-0.1879144,-0.2930984,1.550194,0.2540649,-0.2994229,1.548744,NA,NA,NotTracked,NotTracked,
0.9135742,0.3100586,0.1293945,0.9570313,-0.2866211,0.1455078,-1,-1,-2,-2,-2,0,-1,-1,0,0,0,-1,-2,-2,0,0,2.0625,2.0625,2.0625,4,4,4,6.807356,3.076235,2.146432,3.330278,3.04485,5.508263,-0.1569764,-0.5412535,1.421711,0.2343909,-0.5326941,1.410052,0.03757819,0.2243997,1.5948,-0.1885379,-0.5454946,1.415034,0.261283,-0.5179092,1.402148,0.03111965,-0.2276424,1.562637,0.03330162,-0.5352499,1.5047,-0.1541126,-0.04339965,1.578847,-0.05577635,-0.5249242,1.472348,-0.1879167,-0.2930858,1.550196,0.2539289,-0.2993441,1.548768,NA,NA,NotTracked,NotTracked,
0.9160156,0.3022461,0.1342773,0.9326172,-0.2836914,0.1533203,1,0,0,1,-2,-1,-1,-1,0,-1,0,-1,-1,-1,2,-1,0.875,0.875,0.875,2.6875,2.6875,2.6875,6.808368,3.073408,2.146337,3.331776,3.038815,5.51241,-0.1571435,-0.5410397,1.423397,0.2344276,-0.5328403,1.410202,0.0376344,0.224376,1.594844,-0.1896368,-0.545853,1.41761,0.2600461,-0.5206448,1.39895,0.03109125,-0.2276847,1.562764,0.03331709,-0.535265,1.504775,-0.1541785,-0.04349753,1.579113,-0.05576412,-0.5249164,1.472383,-0.1879021,-0.293061,1.550371,0.2538833,-0.2993416,1.548822,NA,NA,NotTracked,NotTracked,
0.9155273,0.3051758,0.1445313,0.9384766,-0.300293,0.1538086,-2,0,-1,-1,-1,-1,0,0,0,0,-1,-2,0,-1,-1,0,1.5,1.5,1.5,0.625,0.625,0.625,6.81445,3.069735,2.141954,3.321655,3.033527,5.524123,-0.1573748,-0.5419427,1.423925,0.2353774,-0.5332106,1.409901,0.03762688,0.2243627,1.594877,-0.1906069,-0.5487686,1.41973,0.2617048,-0.5198467,1.40271,0.03102743,-0.2277191,1.562832,0.03329255,-0.5352868,1.504807,-0.1542353,-0.0435099,1.579225,-0.05577894,-0.5249211,1.472382,-0.1879106,-0.2930602,1.550539,0.2538001,-0.2993382,1.548796,NA,NA,NotTracked,NotTracked,
0.9189453,0.3017578,0.1450195,0.9414063,-0.3061523,0.1606445,1,0,-2,-3,-1,-1,0,-2,-1,0,0,0,0,-2,0,-1,0,0,0,4.4375,4.4375,4.4375,6.821704,3.064338,2.134737,3.315525,3.029835,5.534429,-0.1578909,-0.5423173,1.425653,0.2357751,-0.5332892,1.411312,0.03764676,0.2243498,1.594937,-0.1932877,-0.5315963,1.423568,0.2627114,-0.52424,1.403775,0.03094384,-0.2277316,1.562948,0.0332675,-0.5353047,1.504857,-0.1543132,-0.04362762,1.57945,-0.05581432,-0.5249606,1.472466,-0.1880195,-0.293034,1.55099,0.2537911,-0.2993574,1.548803,NA,NA,NotTracked,NotTracked,
0.9223633,0.3017578,0.1464844,0.9467773,-0.2866211,0.1689453,-2,0,-1,-1,-1,0,0,-3,1,1,-2,-3,-2,0,-1,-2,1.875,1.875,1.875,2.25,2.25,2.25,6.826458,3.060385,2.131106,3.309435,3.026295,5.545032,-0.1588164,-0.5430661,1.426168,0.2367696,-0.5339677,1.411341,0.03768808,0.2242551,1.594865,-0.1924,-0.5424907,1.420526,0.2609605,-0.5198873,1.400532,0.03075333,-0.227805,1.563109,0.0330786,-0.5353708,1.505004,-0.1544686,-0.04365829,1.579791,-0.05597483,-0.5250084,1.47255,-0.1882312,-0.2931948,1.551352,0.2537389,-0.2994186,1.548822,NA,NA,NotTracked,NotTracked,
0.9257813,0.3085938,0.1416016,0.9443359,-0.293457,0.1635742,-1,-4,-1,-2,-1,-2,0,-2,-2,-1,-1,-1,-1,-3,-1,0,1,1,1,1.6875,1.6875,1.6875,6.83028,3.057847,2.128617,3.302516,3.022802,5.554352,-0.1590012,-0.542049,1.427449,0.2368055,-0.5335633,1.411999,0.03766484,0.2241813,1.594856,-0.1954502,-0.5295132,1.424707,0.2650069,-0.5248164,1.406562,0.03073457,-0.2278493,1.563145,0.03300237,-0.5354197,1.505076,-0.1545224,-0.0436964,1.579932,-0.05605119,-0.5250799,1.47263,-0.1883222,-0.2933314,1.551684,0.253739,-0.2994457,1.548805,NA,NA,NotTracked,NotTracked,
0.9228516,0.3046875,0.1425781,0.9467773,-0.2856445,0.1611328,0,2,-1,-1,-1,-2,-4,1,-1,-3,-2,0,1,1,-2,0,0.125,0.125,0.125,0.9375,0.9375,0.9375,6.828675,3.056198,2.130468,3.302801,3.0221,5.555837,-0.15946,-0.5425919,1.426293,0.2367722,-0.5329512,1.410891,0.03768153,0.2241142,1.594744,-0.1929386,-0.5403653,1.421078,0.2643022,-0.5220833,1.404194,0.03071667,-0.2278523,1.563135,0.03298575,-0.5354255,1.505064,-0.1545793,-0.04370447,1.579947,-0.05607122,-0.5251043,1.472612,-0.1882825,-0.2935919,1.551802,0.2537065,-0.2994068,1.548785,NA,NA,NotTracked,NotTracked,
0.9204102,0.2988281,0.1474609,0.9448242,-0.2832031,0.1704102,0,0,-2,0,-1,-1,1,1,-2,-1,-1,-1,-3,-5,-1,-1,1.5625,1.5625,1.5625,-0.25,-0.25,-0.25,6.82585,3.055042,2.134688,3.303255,3.022206,5.555326,-0.1608691,-0.5430396,1.427424,0.2366578,-0.5335829,1.410983,0.03764298,0.2239846,1.594311,-0.1965046,-0.5508307,1.42079,0.2622538,-0.5174275,1.401718,0.03062189,-0.2279004,1.563144,0.03284265,-0.5354724,1.50512,-0.1546142,-0.04371512,1.579997,-0.05619783,-0.525143,1.472631,-0.1886472,-0.2933796,1.552467,0.2536452,-0.2994989,1.548652,NA,NA,NotTracked,NotTracked,
0.9213867,0.3022461,0.1376953,0.9467773,-0.2817383,0.1650391,-1,0,-1,0,-2,-2,0,-1,2,-2,0,-1,-1,0,-3,0,0.375,0.375,0.375,0.5,0.5,0.5,6.825452,3.054871,2.135832,3.30929,3.022931,5.548988,-0.1609777,-0.5435796,1.426975,0.2362678,-0.5337741,1.411035,0.0376411,0.2239759,1.594218,-0.1951437,-0.5537594,1.417555,0.2729966,-0.529579,1.424875,0.0305975,-0.2279153,1.563151,0.032791,-0.5354996,1.505154,-0.1546179,-0.04371146,1.580002,-0.05624799,-0.5251793,1.472667,-0.1887101,-0.293405,1.552497,0.2536389,-0.2994913,1.548645,NA,NA,NotTracked,NotTracked,
0.9179688,0.3007813,0.1386719,0.9477539,-0.2822266,0.1601563,-2,0,0,-3,-1,0,0,-2,-1,-2,-2,-1,0,-1,-1,-1,1.25,1.25,1.25,-0.375,-0.375,-0.375,6.823526,3.055095,2.138482,3.318343,3.024443,5.53958,-0.1604893,-0.543083,1.428268,0.2357893,-0.5335085,1.411795,0.03761891,0.2237011,1.594061,-0.1948872,-0.5463273,1.421366,0.2630253,-0.5173311,1.405,0.03055858,-0.2279326,1.563183,0.03272313,-0.5355328,1.505209,-0.1546218,-0.04371609,1.580006,-0.05631214,-0.5252054,1.47272,-0.1888203,-0.2934688,1.552595,0.2535953,-0.2995492,1.548626,NA,NA,NotTracked,NotTracked,
0.9228516,0.2998047,0.1323242,0.9453125,-0.2827148,0.1547852,0,-1,-1,-2,0,-1,0,0,0,-2,-1,-1,-2,-3,-2,0,0.3125,0.3125,0.3125,0.125,0.125,0.125,6.824278,3.054713,2.137751,3.32208,3.02548,5.535742,-0.1603749,-0.5427922,1.427587,0.2352502,-0.5331368,1.41159,0.03763555,0.2236918,1.593951,-0.1965568,-0.5468308,1.422595,0.261087,-0.5197637,1.400764,0.03052556,-0.2280013,1.563174,0.0326666,-0.53559,1.505237,-0.1546948,-0.04380171,1.580028,-0.05637274,-0.525284,1.472737,-0.1888915,-0.2935848,1.552771,0.253506,-0.2995495,1.548558,NA,NA,NotTracked,NotTracked,
0.9248047,0.3007813,0.1328125,0.949707,-0.2758789,0.15625,0,1,1,0,-1,-1,-2,-1,-1,0,-2,-1,0,0,-3,-1,0.9375,0.9375,0.9375,-0.9375,-0.9375,-0.9375,6.825778,3.053854,2.137038,3.331342,3.026809,5.525522,-0.1601729,-0.543769,1.426734,0.2353287,-0.5339819,1.411588,0.03764853,0.2236752,1.593846,-0.1952414,-0.5443873,1.421767,0.2615303,-0.52407,1.402374,0.03048193,-0.2280378,1.563207,0.03262289,-0.5356188,1.505279,-0.1547311,-0.04383178,1.580076,-0.05640377,-0.5253023,1.472743,-0.1888924,-0.2936441,1.552788,0.2534709,-0.2995173,1.548546,NA,NA,NotTracked,NotTracked,
0.9248047,0.2993164,0.1313477,0.9414063,-0.2817383,0.1552734,0,0,0,-1,0,-1,0,1,1,1,-2,-1,-2,-1,-2,-1,-0.1875,-0.1875,-0.1875,-0.625,-0.625,-0.625,6.825802,3.054223,2.136994,3.340932,3.027924,5.513314,-0.1600774,-0.5426433,1.426428,0.2346038,-0.5337238,1.411199,0.0376295,0.223671,1.593704,-0.1953619,-0.5452861,1.422604,0.2602071,-0.520764,1.398681,0.03045066,-0.2280492,1.563197,0.03262251,-0.5356273,1.505272,-0.154745,-0.04385692,1.580083,-0.05640624,-0.5253157,1.472736,-0.1888839,-0.2937172,1.552806,0.2534412,-0.2994967,1.548536,NA,NA,NotTracked,NotTracked,
0.9204102,0.2973633,0.1347656,0.9477539,-0.2817383,0.1567383,-2,-2,-2,-2,0,-1,-1,0,-2,-2,-1,0,-2,-1,-1,-4,-0.9375,-0.9375,-0.9375,-0.75,-0.75,-0.75,6.825574,3.053715,2.137251,3.344725,3.027947,5.508312,-0.1594248,-0.5419738,1.426234,0.2347373,-0.5337471,1.41172,0.03769586,0.2235008,1.593036,-0.1897158,-0.5506704,1.412522,0.2591851,-0.5324349,1.394677,0.03035885,-0.2280609,1.563181,0.03254889,-0.5356649,1.505284,-0.1547983,-0.043907,1.580047,-0.05647887,-0.5253624,1.472736,-0.1889009,-0.2937399,1.552805,0.2532823,-0.2995501,1.548417,NA,NA,NotTracked,NotTracked,
0.9204102,0.3017578,0.1367188,0.9467773,-0.2827148,0.1577148,0,1,-1,0,-2,1,-1,-2,0,-2,0,-2,-1,-1,0,-2,-0.625,-0.625,-0.625,-0.8125,-0.8125,-0.8125,6.825574,3.053715,2.137251,3.344874,3.027943,5.507757,-0.1591691,-0.5424828,1.426437,0.2353296,-0.5337187,1.411875,0.03773718,0.22344,1.592911,-0.1935543,-0.5432512,1.421703,0.2626223,-0.5241457,1.403359,0.03034827,-0.2280822,1.563163,0.03254174,-0.5356663,1.50528,-0.1548074,-0.04390874,1.580052,-0.05648571,-0.5253628,1.472733,-0.1889039,-0.2937376,1.55281,0.2532375,-0.2995488,1.548374,NA,NA,NotTracked,NotTracked,
0.9179688,0.296875,0.1352539,0.9458008,-0.2788086,0.1621094,1,0,-2,-2,-2,-2,-1,-2,-3,0,-2,-2,-2,-1,-2,-2,-1.0625,-1.0625,-1.0625,-0.125,-0.125,-0.125,6.824567,3.052082,2.135705,3.344874,3.027943,5.507757,-0.1593765,-0.5423682,1.426363,0.2354022,-0.5339712,1.411902,0.03776328,0.2234894,1.592803,-0.1954805,-0.5456423,1.424035,0.2615711,-0.5234649,1.401422,0.03029738,-0.2280838,1.563145,0.03253957,-0.5356702,1.505281,-0.1548378,-0.04388029,1.580032,-0.05649105,-0.5253754,1.472726,-0.1889047,-0.2938229,1.552788,0.2531817,-0.2995734,1.548367,NA,NA,NotTracked,NotTracked,
0.9194336,0.3051758,0.1401367,0.9433594,-0.277832,0.1630859,-1,-1,-1,-1,-1,-2,-1,0,-1,-3,-2,-2,-1,-3,0,0,0.3125,0.3125,0.3125,0.5,0.5,0.5,6.824567,3.052082,2.135705,3.344348,3.027499,5.508148,-0.1596061,-0.5430404,1.426489,0.2355241,-0.5339774,1.41272,0.03774208,0.2234857,1.592689,-0.1962348,-0.5542595,1.423889,0.2619694,-0.5233544,1.402216,0.03015753,-0.2281271,1.563074,0.03243406,-0.5356987,1.505203,-0.1548795,-0.04388514,1.580029,-0.05662514,-0.5253763,1.472606,-0.1889025,-0.2938282,1.552803,0.2531112,-0.2995827,1.548392,NA,NA,NotTracked,NotTracked,
0.9248047,0.2949219,0.1445313,0.9482422,-0.2729492,0.1630859,-1,-2,-2,-1,0,1,-1,-1,-2,-1,-2,1,0,0,-1,-1,0.4375,0.4375,0.4375,0.5625,0.5625,0.5625,6.823787,3.052095,2.136484,3.344445,3.027835,5.508245,-0.1591653,-0.5425711,1.425419,0.2349282,-0.5339215,1.41198,0.03775176,0.2233365,1.592479,-0.1905058,-0.5527185,1.4126,0.2610588,-0.5201069,1.401507,0.03009355,-0.228224,1.562994,0.03243246,-0.5357479,1.505169,-0.1549457,-0.0439919,1.579997,-0.05663639,-0.5254582,1.472519,-0.1889265,-0.2938921,1.552783,0.253091,-0.2996148,1.548386,NA,NA,NotTracked,NotTracked,
0.9262695,0.3007813,0.1474609,0.9487305,-0.2768555,0.168457,-1,-2,0,0,-1,-2,-1,1,-3,-1,-1,-1,-3,0,1,0,0.5625,0.5625,0.5625,-0.5,-0.5,-0.5,6.823787,3.052095,2.136484,3.344844,3.026618,5.507552,-0.1594383,-0.5421228,1.425964,0.2349819,-0.5340306,1.412191,0.03777999,0.223288,1.592366,-0.1929103,-0.5475438,1.417135,0.2586049,-0.5375496,1.393938,0.0300333,-0.2282602,1.56297,0.03240919,-0.5357857,1.505159,-0.1549932,-0.04399912,1.579859,-0.05667019,-0.5255244,1.472494,-0.188936,-0.2939656,1.552763,0.253057,-0.2995882,1.54841,NA,NA,NotTracked,NotTracked,
0.9194336,0.2963867,0.1362305,0.9506836,-0.2788086,0.1582031,0,-2,-1,1,0,0,0,-2,1,-1,-1,-1,0,-3,0,-2,-0.0625,-0.0625,-0.0625,0.0625,0.0625,0.0625,6.823787,3.052095,2.136484,3.344408,3.02484,5.507912,-0.1598491,-0.5424201,1.426838,0.2344405,-0.5343044,1.412279,0.03774086,0.223209,1.591836,-0.1944411,-0.5455849,1.420233,0.2604952,-0.5202219,1.400866,0.0299026,-0.2282788,1.562844,0.03232149,-0.5357994,1.505123,-0.1551372,-0.04404872,1.579731,-0.05676138,-0.5255391,1.472454,-0.1889748,-0.2940545,1.552737,0.2529479,-0.299653,1.548373,NA,NA,NotTracked,NotTracked,
0.9208984,0.3046875,0.1352539,0.9462891,-0.2734375,0.1621094,-1,-1,-1,-3,-1,-1,-1,-2,-1,-1,-2,-2,-2,-1,0,-1,1.25,1.25,1.25,0.1875,0.1875,0.1875,6.824165,3.05191,2.136853,3.344146,3.02454,5.508046,-0.1603406,-0.5424376,1.426373,0.2346432,-0.5336334,1.411616,0.03770041,0.2232144,1.591642,-0.1967278,-0.5320867,1.421385,0.2611582,-0.518428,1.402153,0.02981766,-0.2282875,1.56278,0.03231352,-0.5357994,1.505097,-0.1552173,-0.04404375,1.579673,-0.05676739,-0.5255405,1.472434,-0.1889578,-0.2940794,1.552725,0.2529217,-0.2996087,1.548367,NA,NA,NotTracked,NotTracked,
0.9204102,0.2924805,0.1337891,0.9414063,-0.2797852,0.1630859,0,-3,-1,-2,2,-2,-1,0,0,0,-2,-2,-1,2,-1,0,0.5,0.5,0.5,0.5,0.5,0.5,6.824165,3.05191,2.136853,3.344146,3.02454,5.508046,-0.1599594,-0.5424334,1.426531,0.2338556,-0.5334517,1.41225,0.03766563,0.2233404,1.591321,-0.1947422,-0.542892,1.420131,0.2606121,-0.5219697,1.400694,0.0297084,-0.2282601,1.562637,0.03224501,-0.5357941,1.505046,-0.1552483,-0.04404135,1.579633,-0.05685867,-0.5255239,1.472325,-0.1889991,-0.2941014,1.552711,0.2528834,-0.2996138,1.548329,NA,NA,NotTracked,NotTracked,
0.9228516,0.2978516,0.1323242,0.9428711,-0.2792969,0.1660156,1,0,0,0,0,0,-1,1,-2,-3,0,-1,0,4,1,-3,0.4375,0.4375,0.4375,0.75,0.75,0.75,6.824165,3.05191,2.136853,3.344146,3.02454,5.508046,-0.1606022,-0.5431166,1.426349,0.2338763,-0.5343308,1.411466,0.03764767,0.2233474,1.591111,-0.1963848,-0.5458975,1.422906,0.2673952,-0.5458388,1.415625,0.02966749,-0.2283308,1.562518,0.03223058,-0.5358166,1.50501,-0.155377,-0.0440736,1.579577,-0.05687925,-0.5255834,1.472265,-0.1890761,-0.2940295,1.552793,0.2527359,-0.2995048,1.548254,NA,NA,NotTracked,NotTracked,
0.9204102,0.2905273,0.1289063,0.9458008,-0.2753906,0.1611328,-2,-3,-2,-2,-1,-3,-1,-1,-1,-1,-1,-1,0,-2,-1,-1,1.125,1.125,1.125,0.125,0.125,0.125,6.824687,3.050924,2.137126,3.344146,3.02454,5.508046,-0.1608398,-0.5429146,1.426409,0.2331879,-0.5331045,1.411843,0.03762822,0.223389,1.590425,-0.1950872,-0.5574126,1.419143,0.2607425,-0.5201061,1.401363,0.02951969,-0.228388,1.562303,0.03210987,-0.5359072,1.504864,-0.1554532,-0.04412997,1.579527,-0.05700025,-0.5257168,1.472109,-0.1891033,-0.294082,1.552786,0.2525082,-0.2995594,1.547938,NA,NA,NotTracked,NotTracked,
0.9228516,0.3012695,0.1279297,0.9433594,-0.28125,0.1567383,-1,-2,0,0,-1,0,0,-2,1,0,-1,0,-2,-2,-3,0,0.8125,0.8125,0.8125,0.6875,0.6875,0.6875,6.824407,3.050228,2.138772,3.344146,3.02454,5.508046,-0.1601494,-0.5420617,1.4261,0.2332237,-0.5332711,1.41223,0.03763738,0.2234837,1.589898,-0.1980748,-0.5530169,1.425779,0.2621571,-0.5225816,1.404398,0.02943674,-0.2283899,1.562188,0.03201909,-0.5359156,1.504716,-0.1555163,-0.04416616,1.579422,-0.05708563,-0.5257242,1.471983,-0.1891294,-0.2941182,1.55273,0.2524255,-0.2995722,1.547775,NA,NA,NotTracked,NotTracked,
0.9194336,0.2958984,0.1313477,0.9448242,-0.2768555,0.1557617,0,0,0,1,0,-1,0,1,-2,0,0,-2,2,-1,-1,-1,0.9375,0.9375,0.9375,0.3125,0.3125,0.3125,6.824254,3.050287,2.13907,3.343712,3.024432,5.508538,-0.160878,-0.5426275,1.426337,0.2333554,-0.5335413,1.412624,0.03760675,0.2235587,1.589692,-0.1973488,-0.549051,1.422901,0.2618001,-0.5126335,1.405515,0.02943016,-0.228394,1.562176,0.03198497,-0.535937,1.504696,-0.1555644,-0.04417456,1.579421,-0.05711346,-0.5257497,1.471972,-0.1891321,-0.2941292,1.552723,0.2523662,-0.2995316,1.547753,NA,NA,NotTracked,NotTracked,
0.9248047,0.300293,0.1289063,0.9482422,-0.2753906,0.1606445,-1,0,-1,-1,-3,-1,-1,0,2,-3,-2,-1,0,-1,-2,0,0.8125,0.8125,0.8125,-0.0625,-0.0625,-0.0625,6.825364,3.049888,2.138571,3.343182,3.023986,5.508933,-0.160493,-0.5424734,1.426494,0.2333778,-0.5336739,1.411796,0.03756453,0.2235304,1.589503,-0.194806,-0.5401031,1.415516,0.2645167,-0.5448766,1.407812,0.02936919,-0.2284215,1.562072,0.03197117,-0.5359398,1.504576,-0.1556201,-0.04417101,1.579395,-0.05712383,-0.5257467,1.471774,-0.1891502,-0.2941493,1.552654,0.2521591,-0.2995028,1.547524,NA,NA,NotTracked,NotTracked,
0.9233398,0.2939453,0.1318359,0.9448242,-0.2817383,0.1616211,0,1,-1,0,0,-2,0,-1,-3,-2,-1,0,0,-1,-1,-2,0.5625,0.5625,0.5625,-0.0625,-0.0625,-0.0625,6.825312,3.049691,2.138487,3.343182,3.023986,5.508933,-0.1605803,-0.5431132,1.426688,0.2334854,-0.5337549,1.412098,0.03756462,0.2235318,1.589501,-0.1957869,-0.5477541,1.420749,0.2604447,-0.5218211,1.401906,0.0292983,-0.2284353,1.562055,0.03192352,-0.5359552,1.504569,-0.1556962,-0.04411983,1.579439,-0.0571699,-0.5257552,1.471775,-0.1891505,-0.2941605,1.552664,0.2520561,-0.2994271,1.547557,NA,NA,NotTracked,NotTracked,
0.9208984,0.2958984,0.1347656,0.9492188,-0.2753906,0.168457,-2,0,0,0,0,-1,0,1,-1,-2,-1,-2,-1,-1,-1,-3,2.9375,2.9375,2.9375,-0.0625,-0.0625,-0.0625,6.826426,3.048659,2.140377,3.343353,3.023794,5.508574,-0.1604821,-0.542748,1.426443,0.2330161,-0.5361549,1.41099,0.03751772,0.2234638,1.589339,-0.1962421,-0.531059,1.423357,0.2600653,-0.5316966,1.398269,0.02926114,-0.2284511,1.562015,0.03189665,-0.5359673,1.504548,-0.1557604,-0.04414101,1.579398,-0.05719536,-0.5257594,1.471762,-0.1891471,-0.2941661,1.552673,0.2520145,-0.2994705,1.547504,NA,NA,NotTracked,NotTracked,
0.9233398,0.2998047,0.1303711,0.9477539,-0.2802734,0.1738281,0,-1,-1,-2,-2,-1,-3,-1,0,-1,-1,-1,0,-1,-2,-1,-0.375,-0.375,-0.375,-0.3125,-0.3125,-0.3125,6.827416,3.04814,2.140299,3.344439,3.024344,5.50786,-0.1599693,-0.5451175,1.425483,0.2331691,-0.5362362,1.411397,0.03748697,0.2234963,1.589301,-0.1962563,-0.5507082,1.41934,0.262716,-0.5267971,1.40558,0.02913045,-0.228462,1.561931,0.03179708,-0.5360018,1.504418,-0.1558291,-0.04419032,1.579331,-0.05728567,-0.5258022,1.47166,-0.1891799,-0.2941959,1.552698,0.2519669,-0.299511,1.547423,NA,NA,NotTracked,NotTracked,
0.9223633,0.2954102,0.1289063,0.9472656,-0.2758789,0.1601563,-1,0,-1,1,-1,-1,0,-1,0,1,-1,-2,0,-1,-1,0,0.125,0.125,0.125,-0.5625,-0.5625,-0.5625,6.827997,3.047987,2.139728,3.343353,3.023794,5.508574,-0.1595543,-0.5452835,1.42547,0.2325282,-0.5354968,1.411318,0.03745821,0.2234758,1.589293,-0.1966334,-0.5387181,1.425766,0.2596353,-0.5281441,1.397784,0.02905905,-0.228479,1.56185,0.03172478,-0.5360166,1.504326,-0.155877,-0.0442386,1.579308,-0.05736823,-0.5258057,1.471542,-0.189145,-0.2943346,1.552631,0.2518845,-0.2995214,1.547272,NA,NA,NotTracked,NotTracked,
